REDsignal,IRsignal,synced
0.8153984069824218,0.4942995071411133,0
0.8154493331909179,0.4942445755004883,0
0.8155735015869140,0.4942926406860351,0
0.8157056808471680,0.4945060729980468,0
0.8157096862792969,0.4945060729980468,0
0.8156810760498047,0.4946588516235351,0
0.8158836364746094,0.4946588516235351,0
0.8158927917480469,0.4946182250976562,0
0.8158893585205078,0.4946182250976562,0
0.8159431457519531,0.4951211929321289,0
0.8160043716430664,0.4951211929321289,0
0.8160209655761719,0.4950027465820312,0
0.8160821914672851,0.4950027465820312,0
0.8162200927734374,0.4951824188232422,0
0.8161943435668945,0.4951824188232422,0
0.8162761688232422,0.4953420639038086,0
0.8164581298828125,0.4953420639038086,0
0.8164232254028320,0.4952905654907226,0
0.8164644241333008,0.4952905654907226,0
0.8163866043090821,0.4955858230590820,0
0.8164489746093749,0.4955858230590820,0
0.8163368225097656,0.4954433441162109,0
0.8163969039916992,0.4954433441162109,0
0.8165021896362304,0.4955451965332031,0
0.8164054870605468,0.4955451965332031,0
0.8164020538330078,0.4956064224243164,0
0.8165868759155274,0.4956064224243164,0
0.8165016174316406,0.4955692291259766,0
0.8165142059326171,0.4955692291259766,0
0.8166097640991211,0.4958885192871094,0
0.8165737152099609,0.4958885192871094,0
0.8165393829345703,0.4957471847534179,0
0.8165267944335938,0.4957471847534179,0
0.8165977478027343,0.4958370208740234,0
0.8166080474853515,0.4958370208740234,0
0.8166023254394531,0.4959400177001953,0
0.8167762756347656,0.4959400177001953,0
0.8166372299194335,0.4958902359008789,0
0.8166263580322265,0.4958902359008789,0
0.8166835784912109,0.4961826324462890,0
0.8166332244873047,0.4961826324462890,0
0.8166749954223632,0.4959480285644531,0
0.8166801452636718,0.4959480285644531,0
0.8167430877685546,0.4960624694824218,0
0.8166744232177734,0.4960624694824218,0
0.8166475296020508,0.4961288452148437,0
0.8168306350708008,0.4961288452148437,0
0.8168111801147461,0.4961002349853516,0
0.8168146133422851,0.4961002349853516,0
0.8169124603271484,0.4964326858520507,0
0.8169176101684570,0.4964326858520507,0
0.8168809890747070,0.4962415695190430,0
0.8168277740478516,0.4962415695190430,0
0.8169490814208984,0.4963640213012695,0
0.8167871475219727,0.4963640213012695,0
0.8166538238525390,0.4962398529052734,0
0.8166080474853515,0.4962398529052734,0
0.8164226531982421,0.4958089828491211,0
0.8162469863891602,0.4958089828491211,0
0.8160181045532227,0.4955400466918945,0
0.8156347274780273,0.4955400466918945,0
0.8153017044067382,0.4946817398071289,0
0.8149509429931641,0.4946817398071289,0
0.8145578384399413,0.4938337326049804,0
0.8140811920166016,0.4938337326049804,0
0.8135044097900390,0.4928112030029297,0
0.8131542205810547,0.4928112030029297,0
0.8127187728881836,0.4918190002441406,0
0.8124790191650391,0.4918190002441406,0
0.8121603012084960,0.4912611007690429,0
0.8117786407470703,0.4912611007690429,0
0.8114622116088867,0.4905487060546875,0
0.8112407684326172,0.4905487060546875,0
0.8113477706909179,0.4902002334594726,0
0.8110324859619140,0.4902002334594726,0
0.8109283447265625,0.4901023864746094,0
0.8110033035278320,0.4901023864746094,0
0.8109615325927734,0.4899885177612304,0
0.8110485076904297,0.4899885177612304,0
0.8112121582031250,0.4903736114501953,0
0.8112579345703125,0.4903736114501953,0
0.8112464904785156,0.4905086517333984,0
0.8113975524902344,0.4905086517333984,0
0.8118352890014648,0.4909132003784180,0
0.8118478775024414,0.4909132003784180,0
0.8120326995849609,0.4913623809814453,0
0.8122867584228516,0.4913623809814453,0
0.8124544143676757,0.4917354583740234,0
0.8126850128173828,0.4917354583740234,0
0.8128326416015624,0.4922698974609375,0
0.8129104614257813,0.4922698974609375,0
0.8129573822021484,0.4924495697021484,0
0.8131267547607421,0.4924495697021484,0
0.8135004043579102,0.4928787231445312,0
0.8134883880615235,0.4928787231445312,0
0.8136205673217773,0.4931562423706055,0
0.8138935089111328,0.4931562423706055,0
0.8138643264770508,0.4934549331665039,0
0.8141532897949219,0.4934549331665039,0
0.8143541336059570,0.4938932418823242,0
0.8143672943115234,0.4938932418823242,0
0.8142837524414063,0.4939870834350586,0
0.8144599914550781,0.4939870834350586,0
0.8148622512817383,0.4943464279174805,0
0.8148078918457031,0.4943464279174805,0
0.8148221969604492,0.4945610046386719,0
0.8150070190429687,0.4945610046386719,0
0.8149692535400390,0.4946502685546875,0
0.8150888442993164,0.4946502685546875,0
0.8150859832763672,0.4949169158935547,0
0.8151323318481445,0.4949169158935547,0
0.8149623870849609,0.4949317932128906,0
0.8150367736816406,0.4949317932128906,0
0.8152782440185546,0.4950777053833008,0
0.8152187347412109,0.4950777053833008,0
0.8151014328002929,0.4950359344482422,0
0.8151906967163086,0.4950359344482422,0
0.8150739669799805,0.4949970245361328,0
0.8150115966796875,0.4949970245361328,0
0.8150115966796875,0.4950942993164062,0
0.8149749755859375,0.4950942993164062,0
0.8148370742797851,0.4950702667236328,0
0.8148908615112305,0.4950702667236328,0
0.8152530670166015,0.4950817108154297,0
0.8150333404541016,0.4950817108154297,0
0.8150098800659179,0.4950164794921875,0
0.8151203155517578,0.4950164794921875,0
0.8150613784790038,0.4951068878173828,0
0.8151563644409180,0.4951068878173828,0
0.8151609420776367,0.4951858520507812,0
0.8150831222534179,0.4951858520507812,0
0.8148176193237304,0.4950736999511718,0
0.8147975921630859,0.4950736999511718,0
0.8152198791503906,0.4951383590698242,0
0.8150493621826171,0.4953054428100586,0
0.8150476455688477,0.4952035903930664,0
0.8152307510375977,0.4952035903930664,0
0.8151414871215820,0.4952854156494140,0
0.8153612136840820,0.4952854156494140,0
0.8153228759765625,0.4955337524414062,0
0.8152965545654297,0.4955337524414062,0
0.8151723861694335,0.4955171585083007,0
0.8152381896972656,0.4955171585083007,0
0.8155912399291992,0.4956665039062500,0
0.8155488967895508,0.4956665039062500,0
0.8154911041259766,0.4957626342773437,0
0.8156913757324219,0.4957626342773437,0
0.8157480239868163,0.4959314346313476,0
0.8159511566162109,0.4959314346313476,0
0.8160238265991211,0.4961574554443359,0
0.8160158157348633,0.4961574554443359,0
0.8159305572509765,0.4963262557983398,0
0.8160369873046874,0.4963262557983398,0
0.8164741516113281,0.4964756011962890,0
0.8164289474487304,0.4964756011962890,0
0.8163654327392578,0.4965219497680664,0
0.8165342330932617,0.4965219497680664,0
0.8164752960205078,0.4967239379882812,0
0.8167047500610352,0.4967239379882812,0
0.8166131973266602,0.4968435287475585,0
0.8165811538696289,0.4968435287475585,0
0.8165130615234375,0.4969928741455078,0
0.8166126251220703,0.4969928741455078,0
0.8170114517211914,0.4971525192260742,0
0.8169027328491211,0.4971525192260742,0
0.8168678283691406,0.4973493576049804,0
0.8171270370483398,0.4973493576049804,0
0.8169885635375976,0.4974014282226562,0
0.8172689437866211,0.4974014282226562,0
0.8170715332031250,0.4975090026855469,0
0.8170389175415039,0.4975090026855469,0
0.8168563842773438,0.4975839614868164,0
0.8169233322143554,0.4975839614868164,0
0.8172283172607422,0.4977647781372070,0
0.8171642303466796,0.4977647781372070,0
0.8172180175781250,0.4977956771850586,0
0.8174102783203124,0.4977956771850586,0
0.8174125671386718,0.4979827880859375,0
0.8177684783935547,0.4979827880859375,0
0.8176568984985352,0.4980525970458984,0
0.8174703598022460,0.4980525970458984,0
0.8173587799072265,0.4981584548950195,0
0.8175619125366210,0.4981584548950195,0
0.8178514480590821,0.4981904983520508,0
0.8176660537719727,0.4981904983520508,0
0.8175979614257812,0.4982122421264648,0
0.8174589157104492,0.4983295440673828,0
0.8177490234375000,0.4984851837158203,0
0.8180145263671875,0.4984851837158203,0
0.8178497314453125,0.4983781814575195,0
0.8177621841430663,0.4983781814575195,0
0.8175882339477539,0.4984880447387695,0
0.8175556182861328,0.4984880447387695,0
0.8180282592773437,0.4985155105590820,0
0.8177055358886719,0.4985155105590820,0
0.8175653457641602,0.4982671737670898,0
0.8175722122192383,0.4982671737670898,0
0.8173112869262695,0.4980989456176758,0
0.8172986984252929,0.4980989456176758,0
0.8168592453002930,0.4973556518554687,0
0.8164764404296875,0.4973556518554687,0
0.8154859542846680,0.4961551666259765,0
0.8155391693115234,0.4961551666259765,0
0.8148124694824218,0.4951675415039062,0
0.8142282485961914,0.4951675415039062,0
0.8137847900390625,0.4943613052368164,0
0.8133779525756836,0.4943613052368164,0
0.8136045455932617,0.4934354782104492,0
0.8131319046020508,0.4934354782104492,0
0.8126947402954101,0.4928758621215820,0
0.8124595642089844,0.4928758621215820,0
0.8122919082641601,0.4925085067749023,0
0.8123737335205078,0.4925085067749023,0
0.8120264053344727,0.4921937942504883,0
0.8118324279785156,0.4921937942504883,0
0.8118118286132813,0.4923122406005859,0
0.8118135452270507,0.4923122406005859,0
0.8123725891113281,0.4922899246215820,0
0.8122856140136718,0.4922899246215820,0
0.8122558593750000,0.4925811767578125,0
0.8124206542968749,0.4925811767578125,0
0.8125631332397460,0.4929908752441406,0
0.8128881454467773,0.4929908752441406,0
0.8129751205444335,0.4932100296020507,0
0.8129636764526367,0.4932100296020507,0
0.8130735397338867,0.4937994003295898,0
0.8131982803344726,0.4937994003295898,0
0.8138591766357421,0.4939167022705078,0
0.8138236999511719,0.4939167022705078,0
0.8137784957885742,0.4942920684814453,0
0.8139095306396484,0.4942920684814453,0
0.8140165328979492,0.4946577072143554,0
0.8144273757934570,0.4946577072143554,0
0.8142980575561524,0.4948396682739258,0
0.8142654418945312,0.4948396682739258,0
0.8144308090209961,0.4953632354736328,0
0.8144903182983398,0.4953632354736328,0
0.8149852752685547,0.4954095840454101,0
0.8150075912475586,0.4954095840454101,0
0.8149726867675781,0.4956956863403320,0
0.8150064468383789,0.4956956863403320,0
0.8151220321655274,0.4960063934326172,0
0.8154516220092773,0.4960063934326172,0
0.8153366088867188,0.4960384368896484,0
0.8153022766113281,0.4960384368896484,0
0.8152919769287109,0.4963886260986328,0
0.8153629302978516,0.4963886260986328,0
0.8157382965087890,0.4961809158325195,0
0.8155637741088867,0.4961809158325195,0
0.8153663635253906,0.4962999343872070,0
0.8153337478637696,0.4962999343872070,0
0.8153486251831055,0.4962793350219726,0
0.8154956817626953,0.4962793350219726,0
0.8152851104736328,0.4960578918457031,0
0.8151254653930664,0.4960578918457031,0
0.8151346206665039,0.4962507247924804,0
0.8150602340698242,0.4962507247924804,0
0.8154172897338867,0.4959972381591797,0
0.8152256011962891,0.4959972381591797,0
0.8151632308959961,0.4959823608398437,0
0.8150705337524414,0.4959823608398437,0
0.8150053024291992,0.4960721969604492,0
0.8151729583740234,0.4960721969604492,0
0.8150236129760742,0.4958621978759765,0
0.8148473739624024,0.4958621978759765,0
0.8148405075073242,0.4961093902587890,0
0.8147741317749023,0.4961093902587890,0
0.8150842666625976,0.4959165573120117,0
0.8149028778076172,0.4959165573120117,0
0.8147569656372070,0.4959783554077148,0
0.8147724151611327,0.4959783554077148,0
0.8147432327270507,0.4961071014404297,0
0.8150688171386719,0.4961071014404297,0
0.8148250579833984,0.4960212707519531,0
0.8148324966430663,0.4960212707519531,0
0.8149538040161133,0.4963840484619140,0
0.8148868560791015,0.4963840484619140,0
0.8153017044067382,0.4963479995727539,0
0.8153400421142578,0.4963479995727539,0
0.8152822494506836,0.4965522766113281,0
0.8153388977050781,0.4965522766113281,0
0.8153789520263671,0.4967782974243164,0
0.8156616210937500,0.4967782974243164,0
0.8155597686767578,0.4967874526977539,0
0.8155380249023437,0.4967874526977539,0
0.8155958175659179,0.4971696853637695,0
0.8155906677246093,0.4971696853637695,0
0.8158596038818359,0.4970495223999023,0
0.8157840728759765,0.4970495223999023,0
0.8157800674438477,0.4971851348876953,0
0.8156696319580078,0.4971851348876953,0
0.8157434463500977,0.4973356246948242,0
0.8158853530883788,0.4973356246948242,0
0.8157171249389649,0.4971708297729492,0
0.8156908035278320,0.4971708297729492,0
0.8157817840576171,0.4974872589111328,0
0.8157669067382812,0.4974872589111328,0
0.8159317016601563,0.4974323272705078,0
0.8159975051879883,0.4974323272705078,0
0.8160873413085937,0.4976469039916992,0
0.8160781860351562,0.4976469039916992,0
0.8161645889282226,0.4977573394775390,0
0.8163597106933593,0.4977573394775390,0
0.8162069320678711,0.4977184295654297,0
0.8161989212036133,0.4977184295654297,0
0.8163082122802734,0.4981029510498047,0
0.8164340972900390,0.4981029510498047,0
0.8165245056152344,0.4980239868164062,0
0.8165508270263672,0.4980239868164062,0
0.8165931701660156,0.4981756210327148,0
0.8165685653686523,0.4981756210327148,0
0.8165496826171875,0.4983278274536133,0
0.8167625427246094,0.4983278274536133,0
0.8167064666748046,0.4982528686523438,0
0.8166446685791016,0.4982528686523438,0
0.8166812896728516,0.4985801696777343,0
0.8166795730590820,0.4985801696777343,0
0.8168798446655273,0.4985578536987305,0
0.8168048858642578,0.4985578536987305,0
0.8169061660766601,0.4986459732055664,0
0.8168432235717773,0.4986459732055664,0
0.8169118881225585,0.4987586975097656,0
0.8170875549316406,0.4987586975097656,0
0.8170669555664062,0.4987466812133789,0
0.8170475006103516,0.4987466812133789,0
0.8171436309814453,0.4989961624145507,0
0.8171951293945312,0.4989961624145507,0
0.8172649383544922,0.4988582611083984,0
0.8171705245971680,0.4988582611083984,0
0.8171316146850586,0.4987197875976562,0
0.8169467926025390,0.4987197875976562,0
0.8166646957397461,0.4982923507690429,0
0.8165073394775391,0.4982923507690429,0
0.8160867691040039,0.4974294662475586,0
0.8156461715698242,0.4974294662475586,0
0.8152261734008789,0.4967845916748047,0
0.8147106170654297,0.4967845916748047,0
0.8143301010131836,0.4955549240112305,0
0.8138328552246094,0.4955549240112305,0
0.8132846832275390,0.4945501327514648,0
0.8128160476684571,0.4945501327514648,0
0.8124715805053710,0.4936477661132812,0
0.8121969223022460,0.4936477661132812,0
0.8117059707641602,0.4926298141479492,0
0.8112951278686523,0.4926298141479492,0
0.8111000061035156,0.4922567367553711,0
0.8107984542846679,0.4922567367553711,0
0.8107429504394531,0.4916810989379883,0
0.8105289459228515,0.4916810989379883,0
0.8104585647583008,0.4915111541748047,0
0.8103326797485352,0.4915111541748047,0
0.8103303909301758,0.4915935516357421,0
0.8104745864868164,0.4915935516357421,0
0.8104608535766601,0.4915163040161132,0
0.8105049133300781,0.4915163040161132,0
0.8106319427490234,0.4920278549194336,0
0.8107469558715820,0.4920278549194336,0
0.8109317779541015,0.4921646118164062,0
0.8110811233520507,0.4921646118164062,0
0.8112344741821289,0.4925668716430664,0
0.8113609313964844,0.4925668716430664,0
0.8113952636718750,0.4928426742553711,0
0.8116001129150391,0.4928426742553711,0
0.8116161346435546,0.4929668426513671,0
0.8116664886474609,0.4929668426513671,0
0.8118129730224609,0.4934629440307617,0
0.8118387222290039,0.4934629440307617,0
0.8120281219482421,0.4936077117919921,0
0.8121665954589844,0.4936077117919921,0
0.8123399734497070,0.4939441680908203,0
0.8124395370483398,0.4939441680908203,0
0.8125305175781250,0.4942937850952148,0
0.8128005981445312,0.4942937850952148,0
0.8128355026245117,0.4944396972656250,0
0.8129110336303711,0.4944396972656250,0
0.8129997253417969,0.4948637008666992,0
0.8131010055541992,0.4948637008666992,0
0.8132160186767577,0.4948717117309570,0
0.8131902694702148,0.4948717117309570,0
0.8133407592773437,0.4950519561767578,0
0.8132537841796875,0.4950519561767578,0
0.8132583618164062,0.4951543807983398,0
0.8134191513061523,0.4951543807983398,0
0.8134260177612305,0.4951189041137695,0
0.8134185791015625,0.4951189041137695,0
0.8134975433349609,0.4953798294067382,0
0.8134237289428711,0.4953798294067382,0
0.8134397506713867,0.4952556610107421,0
0.8133665084838867,0.4952556610107421,0
0.8134723663330078,0.4952785491943359,0
0.8133853912353516,0.4952785491943359,0
0.8132852554321289,0.4953117370605469,0
0.8133419036865234,0.4953117370605469,0
0.8133264541625976,0.4951023101806640,0
0.8132572174072266,0.4951023101806640,0
0.8132732391357421,0.4952219009399414,0
0.8132474899291992,0.4952219009399414,0
0.8131605148315429,0.4950616836547851,0
0.8131977081298828,0.4950616836547851,0
0.8133281707763672,0.4950651168823242,0
0.8132703781127929,0.4950651168823242,0
0.8131982803344726,0.4951852798461914,0
0.8131147384643554,0.4951898574829101,0
0.8133499145507812,0.4951360702514648,0
0.8134283065795899,0.4953157424926757,0
0.8134683609008789,0.4953254699707031,0
0.8135124206542969,0.4953283309936523,0
0.8137287139892578,0.4957654953002930,0
0.8136537551879882,0.4956756591796875,0
0.8138082504272460,0.4957008361816406,0
0.8139404296875000,0.4959743499755859,0
0.8139919281005860,0.4958547592163086,0
0.8139387130737304,0.4960487365722656,0
0.8141561508178711,0.4962684631347656,0
0.8140840530395508,0.4962896347045898,0
0.8140892028808594,0.4962066650390625,0
0.8143415451049805,0.4963027954101562,0
0.8143392562866211,0.4965534210205078,0
0.8143878936767578,0.4964464187622070,0
0.8144439697265625,0.4966152191162109,0
0.8145652770996094,0.4968154907226562,0
0.8145006179809570,0.4968154907226562,0
0.8145343780517578,0.4967502593994140,0
0.8147632598876953,0.4968435287475585,0
0.8147151947021484,0.4969762802124023,0
0.8146711349487304,0.4969837188720703,0
0.8148839950561523,0.4969608306884765,0
0.8149549484252929,0.4971113204956055,0
0.8148679733276367,0.4972469329833984,0
0.8148313522338867,0.4972412109375000,0
0.8151821136474610,0.4973190307617187,0
0.8151014328002929,0.4974174499511719,0
0.8151443481445312,0.4974563598632812,0
0.8152284622192383,0.4975015640258789,0
0.8153280258178711,0.4975336074829101,0
0.8151243209838867,0.4976366043090820,0
0.8151357650756835,0.4976835250854492,0
0.8153251647949219,0.4976463317871094,0
0.8152084350585938,0.4978076934814453,0
0.8151008605957031,0.4976640701293945,0
0.8149532318115235,0.4973482131958007,0
0.8145692825317382,0.4969905853271484,0
0.8140571594238281,0.4965002059936523,0
0.8131010055541992,0.4960184097290039,0
0.8129327774047851,0.4949724197387695,0
0.8123811721801758,0.4945055007934570,0
0.8112424850463867,0.4932832717895508,0
0.8108413696289062,0.4928386688232422,0
0.8099853515625000,0.4923282623291015,0
0.8095716476440430,0.4913818359375000,0
0.8092082977294922,0.4910121917724609,0
0.8088953018188476,0.4904199600219726,0
0.8085868835449218,0.4904199600219726,0
0.8082052230834961,0.4901224136352539,0
0.8082052230834961,0.4899873733520508,0
0.8084255218505859,0.4900394439697265,0
0.8083488464355468,0.4901372909545898,0
0.8083957672119141,0.4902774810791015,0
0.8084878921508789,0.4902774810791015,0
0.8090343475341797,0.4905561447143554,0
0.8090343475341797,0.4908542633056641,0
0.8092620849609374,0.4910402297973633,0
0.8094377517700195,0.4913131713867187,0
0.8097673416137695,0.4917612075805664,0
0.8099384307861328,0.4917354583740234,0
0.8100076675415039,0.4921983718872070,0
0.8106697082519531,0.4924821853637695,0
0.8108751296997070,0.4928833007812500,0
0.8110147476196289,0.4931236267089844,0
0.8111841201782226,0.4931190490722656,0
0.8116144180297852,0.4939310073852539,0
0.8126564025878906,0.4947675704956054,0
0.8128372192382812,0.4949913024902344,0
0.8130563735961914,0.4951320648193359,0
0.8129888534545898,0.4952276229858398,0
0.8129253387451172,0.4952568054199218,0
0.8130523681640625,0.4952333450317383,0
0.8130186080932617,0.4953414916992187,0
0.8129854202270508,0.4952407836914062,0
0.8128915786743164,0.4951515197753906,0
0.8129344940185547,0.4951566696166992,0
0.8128732681274414,0.4952322006225586,0
0.8128068923950195,0.4950920104980469,0
0.8128068923950195,0.4951257705688477,0
0.8130729675292968,0.4949987411499023,0
0.8128755569458007,0.4951715469360352,0
0.8126655578613281,0.4950136184692382,0
0.8127279281616211,0.4950708389282226,0
0.8128812789916992,0.4951824188232422,0
0.8128812789916992,0.4953512191772461,0
0.8129974365234375,0.4954347610473633,0
0.8132474899291992,0.4953895568847656,0
0.8131404876708984,0.4956367492675781,0
0.8131587982177734,0.4955022811889648,0
0.8131044387817382,0.4955938339233398,0
0.8133705139160156,0.4955657958984375,0
0.8133453369140625,0.4957529067993164,0
0.8134208679199219,0.4958713531494141,0
0.8134082794189453,0.4958724975585938,0
0.8138214111328125,0.4959566116333007,0
0.8137298583984375,0.4960699081420898,0
0.8137109756469726,0.4963045120239258,0
0.8139787673950195,0.4965253829956054,0
0.8141950607299805,0.4965190887451172,0
0.8142145156860351,0.4965517044067382,0
0.8142494201660156,0.4966701507568359,0
0.8145441055297852,0.4967508316040039,0
0.8144708633422851,0.4969654083251953,0
0.8144765853881836,0.4969945907592773,0
0.8145521163940429,0.4970363616943359,0
0.8146425247192383,0.4971570968627930,0
0.8146900177001953,0.4971645355224609,0
0.8146310806274414,0.4973384857177734,0
0.8150041580200195,0.4973905563354492,0
0.8150041580200195,0.4973630905151367,0
0.8149726867675781,0.4975587844848632,0
0.8149818420410156,0.4975793838500976,0
0.8152410507202148,0.4977241516113281,0
0.8151117324829101,0.4978031158447265,0
0.8151712417602539,0.4978157043457031,0
0.8151712417602539,0.4979524612426758,0
0.8155580520629883,0.4979106903076171,0
0.8155059814453125,0.4980714797973633,0
0.8154310226440430,0.4982191085815429,0
0.8154041290283203,0.4982128143310547,0
0.8156335830688476,0.4983175277709961,0
0.8156335830688476,0.4982997894287109,0
0.8155866622924804,0.4985034942626953,0
0.8157354354858398,0.4984268188476562,0
0.8157234191894531,0.4986436843872070,0
0.8157428741455078,0.4985286712646484,0
0.8157691955566406,0.4986774444580078,0
0.8157880783081054,0.4986019134521484,0
0.8157073974609375,0.4983610153198242,0
0.8155088424682617,0.4981121063232422,0
0.8149005889892578,0.4974351882934570,0
0.8145395278930664,0.4974208831787109,0
0.8134380340576172,0.4963874816894531,0
0.8134374618530273,0.4959022521972656,0
0.8124023437500000,0.4946016311645507,0
0.8118959426879883,0.4939224243164062,0
0.8107892990112304,0.4928712844848633,0
0.8105043411254883,0.4928541183471680,0
0.8097301483154297,0.4919878005981445,0
0.8093610763549804,0.4912307739257812,0
0.8091888427734375,0.4908771514892578,0
0.8087705612182617,0.4907432556152344,0
0.8087533950805664,0.4906242370605469,0
0.8086933135986328,0.4906545639038086,0
0.8088386535644531,0.4908079147338867,0
0.8092575073242188,0.4909681320190429,0
0.8093925476074219,0.4909681320190429,0
0.8093976974487305,0.4914493560791016,0
0.8095029830932617,0.4914493560791016,0
0.8096483230590820,0.4917680740356445,0
0.8100500106811523,0.4917680740356445,0
0.8102972030639648,0.4923076629638672,0
0.8103687286376953,0.4923076629638672,0
0.8104963302612305,0.4927356719970703,0
0.8107538223266602,0.4927356719970703,0
0.8110914230346680,0.4930881500244140,0
0.8112436294555664,0.4930881500244140,0
0.8113649368286132,0.4935682296752930,0
0.8114152908325195,0.4935682296752930,0
0.8116750717163086,0.4940042495727539,0
0.8119766235351562,0.4940042495727539,0
0.8120767593383789,0.4943046569824219,0
0.8121963500976562,0.4943046569824219,0
0.8123147964477538,0.4947990417480468,0
0.8126129150390625,0.4947990417480468,0
0.8128149032592773,0.4948728561401367,0
0.8129133224487305,0.4948728561401367,0
0.8129745483398437,0.4953958511352539,0
0.8129854202270508,0.4953958511352539,0
0.8131593704223633,0.4956510543823242,0
0.8134426116943360,0.4956510543823242,0
0.8133859634399414,0.4958278656005859,0
0.8133785247802734,0.4958278656005859,0
0.8135015487670898,0.4961328506469727,0
0.8135999679565430,0.4961328506469727,0
0.8137681961059570,0.4960670471191406,0
0.8138002395629883,0.4960670471191406,0
0.8137075424194335,0.4962266921997070,0
0.8136880874633788,0.4962266921997070,0
0.8136428833007813,0.4961889266967773,0
0.8138299942016601,0.4961889266967773,0
0.8136474609375000,0.4959520339965820,0
0.8135187149047851,0.4959520339965820,0
0.8135232925415039,0.4961780548095703,0
0.8135175704956055,0.4961780548095703,0
0.8136531829833984,0.4960355758666992,0
0.8135879516601562,0.4960355758666992,0
0.8135272979736328,0.4960412979125977,0
0.8134981155395508,0.4960412979125977,0
0.8134935379028320,0.4960693359375000,0
0.8136314392089844,0.4960693359375000,0
0.8135272979736328,0.4958662033081054,0
0.8134523391723633,0.4958662033081054,0
0.8134426116943360,0.4960922241210937,0
0.8134820938110351,0.4960922241210937,0
0.8135782241821289,0.4960298538208008,0
0.8135335922241210,0.4960298538208008,0
0.8135204315185547,0.4959571838378906,0
0.8135101318359375,0.4959571838378906,0
0.8135828018188477,0.4961780548095703,0
0.8137825012207031,0.4961780548095703,0
0.8136760711669921,0.4961849212646484,0
0.8136606216430664,0.4961849212646484,0
0.8137630462646485,0.4965156555175781,0
0.8138586044311523,0.4965156555175781,0
0.8139867782592773,0.4964864730834961,0
0.8140050888061523,0.4964864730834961,0
0.8139953613281250,0.4966466903686523,0
0.8139844894409179,0.4966466903686523,0
0.8140251159667968,0.4967645645141601,0
0.8142248153686523,0.4967645645141601,0
0.8142082214355468,0.4968509674072266,0
0.8141939163208007,0.4968509674072266,0
0.8143976211547851,0.4970489501953125,0
0.8144365310668945,0.4970489501953125,0
0.8146064758300781,0.4971925735473632,0
0.8145807266235351,0.4971925735473632,0
0.8145584106445313,0.4973138809204101,0
0.8145195007324219,0.4973138809204101,0
0.8146059036254882,0.4975061416625977,0
0.8147993087768555,0.4975061416625977,0
0.8147998809814453,0.4974746704101562,0
0.8147901535034180,0.4974746704101562,0
0.8148199081420898,0.4978843688964844,0
0.8149469375610351,0.4978843688964844,0
0.8151248931884766,0.4978414535522461,0
0.8151689529418945,0.4978414535522461,0
0.8151077270507813,0.4980113983154297,0
0.8151563644409180,0.4980113983154297,0
0.8151803970336914,0.4980560302734375,0
0.8154470443725585,0.4980560302734375,0
0.8153291702270508,0.4981344223022461,0
0.8152399063110352,0.4981344223022461,0
0.8153783798217773,0.4984153747558593,0
0.8154544830322266,0.4984153747558593,0
0.8154762268066406,0.4983552932739257,0
0.8155059814453125,0.4983552932739257,0
0.8155054092407227,0.4984674453735352,0
0.8154510498046875,0.4984674453735352,0
0.8154493331909179,0.4986190795898438,0
0.8156764984130859,0.4986190795898438,0
0.8156707763671874,0.4985721588134766,0
0.8156032562255859,0.4985721588134766,0
0.8157068252563476,0.4988811492919922,0
0.8157777786254883,0.4988811492919922,0
0.8157337188720702,0.4986871719360351,0
0.8158653259277343,0.4986871719360351,0
0.8158264160156250,0.4989337921142578,0
0.8157629013061524,0.4989337921142578,0
0.8158006668090820,0.4990636825561523,0
0.8160467147827148,0.4990636825561523,0
0.8157737731933593,0.4989995956420898,0
0.8157537460327148,0.4989995956420898,0
0.8157955169677734,0.4991575241088867,0
0.8156759262084960,0.4991575241088867,0
0.8156095504760742,0.4987249374389648,0
0.8154516220092773,0.4987249374389648,0
0.8151208877563476,0.4983421325683594,0
0.8147724151611327,0.4983421325683594,0
0.8143678665161133,0.4974672317504882,0
0.8139982223510742,0.4974672317504882,0
0.8128503799438477,0.4960292816162109,0
0.8128503799438477,0.4953798294067382,0
0.8128503799438477,0.4950325012207031,0
0.8116750717163086,0.4950325012207031,0
0.8110496520996093,0.4935676574707031,0
0.8104877471923828,0.4935676574707031,0
0.8099990844726562,0.4924856185913086,0
0.8093593597412109,0.4924856185913086,0
0.8089468002319335,0.4915466308593750,0
0.8086698532104492,0.4915466308593750,0
0.8082664489746093,0.4906448364257812,0
0.8079111099243164,0.4906448364257812,0
0.8078710556030273,0.4904319763183593,0
0.8077285766601562,0.4904319763183593,0
0.8077383041381836,0.4901132583618164,0
0.8075666427612305,0.4901132583618164,0
0.8076461791992188,0.4901029586791992,0
0.8076810836791992,0.4901029586791992,0
0.8077920913696289,0.4903736114501953,0
0.8080593109130859,0.4903736114501953,0
0.8080924987792969,0.4905899047851562,0
0.8081651687622070,0.4905899047851562,0
0.8082881927490234,0.4910802841186523,0
0.8084655761718750,0.4910802841186523,0
0.8085811614990234,0.4913497924804687,0
0.8087797164916992,0.4913497924804687,0
0.8089902877807617,0.4917194366455078,0
0.8090944290161133,0.4917194366455078,0
0.8091253280639649,0.4921382904052734,0
0.8095264434814453,0.4921382904052734,0
0.8095687866210938,0.4923545837402343,0
0.8096792221069335,0.4923545837402343,0
0.8099212646484375,0.4928260803222656,0
0.8101564407348633,0.4928260803222656,0
0.8101959228515625,0.4932329177856445,0
0.8104637145996093,0.4932329177856445,0
0.8106388092041016,0.4936477661132812,0
0.8107275009155274,0.4936477661132812,0
0.8108980178833007,0.4940105438232422,0
0.8112401962280273,0.4940105438232422,0
0.8113271713256835,0.4942525863647461,0
0.8114604949951172,0.4942525863647461,0
0.8116058349609375,0.4947807312011718,0
0.8116933822631835,0.4947807312011718,0
0.8118558883666992,0.4948024749755859,0
0.8118598937988281,0.4948024749755859,0
0.8119382858276367,0.4949981689453125,0
0.8118782043457031,0.4949981689453125,0
0.8118581771850586,0.4949810028076171,0
0.8120418548583984,0.4949810028076171,0
0.8118856430053710,0.4950359344482422,0
0.8118816375732422,0.4950359344482422,0
0.8119771957397460,0.4951595306396484,0
0.8119560241699219,0.4951595306396484,0
0.8118204116821289,0.4949163436889648,0
0.8118387222290039,0.4949163436889648,0
0.8118782043457031,0.4949546813964844,0
0.8117540359497070,0.4949546813964844,0
0.8116338729858398,0.4948579788208007,0
0.8117654800415038,0.4948579788208007,0
0.8116247177124023,0.4947200775146484,0
0.8116041183471679,0.4947200775146484,0
0.8115783691406250,0.4947916030883789,0
0.8115669250488281,0.4947916030883789,0
0.8114238739013672,0.4944786071777343,0
0.8113975524902344,0.4944786071777343,0
0.8115177154541016,0.4946245193481445,0
0.8113409042358398,0.4946245193481445,0
0.8114078521728515,0.4946731567382812,0
0.8114633560180664,0.4946966171264648,0
0.8116149902343750,0.4947223663330078,0
0.8116149902343750,0.4949466705322265,0
0.8116710662841796,0.4949655532836914,0
0.8116584777832031,0.4949386596679687,0
0.8117723464965820,0.4949386596679687,0
0.8117740631103515,0.4953208923339844,0
0.8117391586303710,0.4953208923339844,0
0.8117437362670898,0.4952184677124023,0
0.8117694854736328,0.4952184677124023,0
0.8120767593383789,0.4953380584716797,0
0.8121877670288086,0.4953380584716797,0
0.8121070861816406,0.4955142974853515,0
0.8121196746826171,0.4955142974853515,0
0.8120367050170898,0.4955423355102539,0
0.8122329711914062,0.4955423355102539,0
0.8121946334838867,0.4959543228149414,0
0.8122747421264648,0.4959543228149414,0
0.8122793197631836,0.4959692001342773,0
0.8123102188110352,0.4959692001342773,0
0.8125179290771484,0.4960493087768554,0
0.8126134872436523,0.4960493087768554,0
0.8125894546508788,0.4962123870849609,0
0.8125734329223633,0.4962123870849609,0
0.8125305175781250,0.4963090896606445,0
0.8127450942993164,0.4963090896606445,0
0.8128028869628906,0.4966753005981445,0
0.8127330780029297,0.4966753005981445,0
0.8127124786376952,0.4966461181640625,0
0.8126569747924804,0.4966461181640625,0
0.8129899978637695,0.4966678619384766,0
0.8130420684814453,0.4966678619384766,0
0.8129482269287109,0.4969093322753906,0
0.8129281997680664,0.4969093322753906,0
0.8130311965942383,0.4968990325927734,0
0.8131101608276367,0.4968990325927734,0
0.8130523681640625,0.4972560882568359,0
0.8130352020263671,0.4972560882568359,0
0.8130077362060547,0.4971193313598632,0
0.8129596710205078,0.4971193313598632,0
0.8132623672485352,0.4971708297729492,0
0.8133619308471679,0.4971708297729492,0
0.8132778167724609,0.4972961425781250,0
0.8132566452026367,0.4972961425781250,0
0.8132778167724609,0.4973665237426758,0
0.8134511947631836,0.4973665237426758,0
0.8134317398071289,0.4976955413818359,0
0.8133842468261718,0.4976955413818359,0
0.8133522033691406,0.4977109909057617,0
0.8133882522583008,0.4977109909057617,0
0.8138225555419921,0.4978088378906250,0
0.8139192581176757,0.4978088378906250,0
0.8138196945190429,0.4980331420898437,0
0.8139026641845702,0.4980331420898437,0
0.8139661788940430,0.4981035232543945,0
0.8141841888427734,0.4981035232543945,0
0.8140336990356445,0.4983781814575195,0
0.8140623092651367,0.4983781814575195,0
0.8140926361083984,0.4981744766235351,0
0.8138975143432617,0.4981744766235351,0
0.8139604568481446,0.4978357315063476,0
0.8137939453124999,0.4978357315063476,0
0.8132411956787109,0.4971599578857422,0
0.8127450942993164,0.4971599578857422,0
0.8122220993041992,0.4960241317749023,0
0.8117122650146484,0.4960241317749023,0
0.8109832763671875,0.4948070526123047,0
0.8102096557617188,0.4948070526123047,0
0.8095476150512695,0.4932209014892578,0
0.8087900161743163,0.4932209014892578,0
0.8084272384643555,0.4916267395019531,0
0.8077932357788086,0.4916267395019531,0
0.8071054458618164,0.4903060913085937,0
0.8064411163330077,0.4903060913085937,0
0.8060497283935547,0.4892309188842773,0
0.8056966781616210,0.4892309188842773,0
0.8052389144897460,0.4886135101318359,0
0.8048377990722656,0.4886135101318359,0
0.8046060562133789,0.4880716323852539,0
0.8043783187866210,0.4880716323852539,0
0.8046707153320313,0.4877374649047851,0
0.8045814514160156,0.4877374649047851,0
0.8044326782226562,0.4878232955932617,0
0.8043828964233398,0.4878232955932617,0
0.8044939041137695,0.4879703521728516,0
0.8047937393188477,0.4879703521728516,0
0.8048017501831054,0.4883600234985351,0
0.8047868728637695,0.4883600234985351,0
0.8049230575561523,0.4886289596557617,0
0.8050912857055664,0.4886289596557617,0
0.8055873870849609,0.4889225006103515,0
0.8057802200317382,0.4889225006103515,0
0.8058425903320312,0.4894523620605469,0
0.8059312820434570,0.4894523620605469,0
0.8060749053955077,0.4897670745849609,0
0.8064405441284179,0.4897670745849609,0
0.8064857482910156,0.4902500152587890,0
0.8066013336181640,0.4902500152587890,0
0.8066780090332031,0.4905807495117187,0
0.8067701339721679,0.4905807495117187,0
0.8072416305541992,0.4908433914184570,0
0.8073989868164062,0.4908433914184570,0
0.8073961257934570,0.4913057327270507,0
0.8075403213500977,0.4913057327270507,0
0.8076490402221680,0.4915666580200195,0
0.8080106735229492,0.4915666580200195,0
0.8081256866455078,0.4921022415161133,0
0.8080936431884765,0.4921022415161133,0
0.8081199645996093,0.4922985076904297,0
0.8081886291503906,0.4922985076904297,0
0.8086452484130859,0.4923746109008789,0
0.8086463928222656,0.4923746109008789,0
0.8085256576538086,0.4926012039184570,0
0.8085496902465820,0.4926012039184570,0
0.8085439682006835,0.4926446914672851,0
0.8087322235107421,0.4926446914672851,0
0.8086109161376953,0.4927717208862304,0
0.8085416793823242,0.4927717208862304,0
0.8085067749023437,0.4926973342895508,0
0.8084775924682617,0.4926973342895508,0
0.8087665557861328,0.4925886154174804,0
0.8086687088012695,0.4925886154174804,0
0.8085508346557617,0.4925251007080078,0
0.8083745956420898,0.4925251007080078,0
0.8082515716552734,0.4924736022949219,0
0.8084043502807617,0.4924736022949219,0
0.8082893371582031,0.4923854827880859,0
0.8082384109497071,0.4923854827880859,0
0.8081182479858399,0.4923328399658203,0
0.8080501556396484,0.4923328399658203,0
0.8083602905273437,0.4921989440917969,0
0.8083797454833984,0.4921989440917969,0
0.8082017898559570,0.4922836303710937,0
0.8081583023071289,0.4922836303710937,0
0.8081651687622070,0.4923202514648437,0
0.8083974838256835,0.4923202514648437,0
0.8082847595214844,0.4924644470214843,0
0.8082492828369140,0.4924644470214843,0
0.8083883285522461,0.4926046371459961,0
0.8084009170532226,0.4926046371459961,0
0.8088392257690430,0.4926601409912109,0
0.8087997436523438,0.4926601409912109,0
0.8087270736694335,0.4928632736206054,0
0.8087631225585937,0.4928632736206054,0
0.8088764190673828,0.4930068969726562,0
0.8091247558593749,0.4930068969726562,0
0.8091081619262696,0.4932970046997070,0
0.8089982986450195,0.4932970046997070,0
0.8089994430541992,0.4934846878051757,0
0.8090938568115235,0.4934846878051757,0
0.8095436096191406,0.4934480667114258,0
0.8095298767089844,0.4934480667114258,0
0.8094640731811523,0.4937501907348633,0
0.8094646453857421,0.4937501907348633,0
0.8095081329345702,0.4939252853393554,0
0.8097387313842773,0.4939252853393554,0
0.8096237182617188,0.4940551757812500,0
0.8095962524414062,0.4940551757812500,0
0.8095624923706054,0.4942520141601562,0
0.8096855163574218,0.4942520141601562,0
0.8100511550903320,0.4942983627319336,0
0.8100225448608398,0.4942983627319336,0
0.8098606109619141,0.4945421218872070,0
0.8099229812622070,0.4945421218872070,0
0.8100460052490234,0.4947246551513672,0
0.8103361129760742,0.4947246551513672,0
0.8103057861328125,0.4948299407958984,0
0.8101427078247070,0.4948299407958984,0
0.8102313995361328,0.4950679779052734,0
0.8103338241577148,0.4950679779052734,0
0.8107801437377929,0.4951486587524414,0
0.8107973098754883,0.4951486587524414,0
0.8106885910034179,0.4953872680664062,0
0.8106794357299805,0.4953872680664062,0
0.8107149124145507,0.4955091476440430,0
0.8109558105468749,0.4955091476440430,0
0.8108602523803711,0.4955680847167969,0
0.8107990264892578,0.4955680847167969,0
0.8107635498046875,0.4957695007324219,0
0.8108150482177734,0.4957695007324219,0
0.8111978530883789,0.4957489013671875,0
0.8111835479736328,0.4957489013671875,0
0.8110313415527344,0.4959503173828125,0
0.8110422134399414,0.4959503173828125,0
0.8110307693481446,0.4960515975952148,0
0.8112693786621094,0.4960515975952148,0
0.8112144470214844,0.4960596084594726,0
0.8110616683959960,0.4960596084594726,0
0.8111360549926757,0.4962575912475586,0
0.8111417770385742,0.4962575912475586,0
0.8115892410278320,0.4962507247924804,0
0.8115732192993164,0.4962507247924804,0
0.8113832473754883,0.4965608596801758,0
0.8114570617675781,0.4965608596801758,0
0.8114976882934570,0.4966243743896484,0
0.8118770599365234,0.4966243743896484,0
0.8116716384887696,0.4966461181640625,0
0.8117019653320312,0.4966461181640625,0
0.8117540359497070,0.4969980239868164,0
0.8117677688598632,0.4969980239868164,0
0.8120178222656250,0.4966724395751953,0
0.8118490219116211,0.4966724395751953,0
0.8115137100219726,0.4960773468017578,0
0.8110811233520507,0.4960773468017578,0
0.8107309341430664,0.4953964233398437,0
0.8104385375976563,0.4953964233398437,0
0.8096317291259766,0.4939573287963867,0
0.8088689804077148,0.4939573287963867,0
0.8081960678100586,0.4925228118896484,0
0.8073692321777344,0.4925228118896484,0
0.8069555282592773,0.4907054901123047,0
0.8061407089233398,0.4907054901123047,0
0.8052932739257812,0.4891119003295898,0
0.8044452667236328,0.4891119003295898,0
0.8038753509521485,0.4876504898071289,0
0.8032722473144531,0.4876504898071289,0
0.8027006149291992,0.4863555908203125,0
0.8021455764770508,0.4863555908203125,0
0.8018543243408203,0.4857233047485351,0
0.8017049789428711,0.4857233047485351,0
0.8016923904418946,0.4851860046386718,0
0.8015544891357421,0.4851860046386718,0
0.8014034271240235,0.4851608276367188,0
0.8013193130493164,0.4851608276367188,0
0.8014211654663086,0.4852609634399414,0
0.8017169952392578,0.4852609634399414,0
0.8015710830688476,0.4853651046752929,0
0.8016225814819335,0.4853651046752929,0
0.8017799377441406,0.4857971191406250,0
0.8018686294555664,0.4857971191406250,0
0.8022989273071289,0.4859916687011718,0
0.8023601531982422,0.4859916687011718,0
0.8025455474853516,0.4865386962890625,0
0.8027498245239257,0.4865386962890625,0
0.8029638290405273,0.4869575500488281,0
0.8032768249511718,0.4869575500488281,0
0.8032167434692382,0.4871641159057617,0
0.8031806945800781,0.4871641159057617,0
0.8035108566284179,0.4877431869506836,0
0.8036321640014649,0.4878067016601562,0
0.8039932250976562,0.4880395889282226,0
0.8041992187500000,0.4881534576416016,0
0.8042695999145507,0.4887685775756836,0
0.8046129226684570,0.4889522552490234,0
0.8047416687011718,0.4889465332031250,0
0.8050231933593750,0.4895359039306640,0
0.8052200317382813,0.4894666671752930,0
0.8054111480712890,0.4897373199462891,0
0.8054637908935547,0.4898448944091797,0
0.8056520462036133,0.4902048110961914,0
0.8059341430664062,0.4903066635131836,0
0.8058099746704102,0.4902179718017578,0
0.8056915283203124,0.4904348373413085,0
0.8058191299438476,0.4902837753295898,0
0.8056915283203124,0.4901647567749023,0
0.8056354522705078,0.4901647567749023,0
0.8055896759033203,0.4903347015380859,0
0.8055261611938477,0.4899702072143555,0
0.8054317474365235,0.4897951126098632,0
0.8053230285644531,0.4901378631591797,0
0.8053779602050781,0.4898792266845703,0
0.8052967071533202,0.4898912429809570,0
0.8052040100097656,0.4898969650268554,0
0.8050546646118164,0.4897951126098632,0
0.8050907135009765,0.4898849487304687,0
0.8050380706787109,0.4898786544799805,0
0.8050134658813476,0.4898786544799805,0
0.8054231643676758,0.4901275634765625,0
0.8052618026733398,0.4899490356445312,0
0.8055124282836914,0.4903404235839843,0
0.8054946899414063,0.4906299591064453,0
0.8055393218994140,0.4905824661254883,0
0.8056274414062500,0.4905790328979492,0
0.8058614730834961,0.4909875869750976,0
0.8062683105468750,0.4910888671875000,0
0.8061933517456055,0.4910888671875000,0
0.8063558578491211,0.4913841247558594,0
0.8064147949218750,0.4916845321655273,0
0.8065755844116210,0.4917469024658203,0
0.8067649841308594,0.4918807983398437,0
0.8072084426879883,0.4922899246215820,0
0.8073623657226562,0.4927368164062500,0
0.8075357437133789,0.4927574157714844,0
0.8077486038208007,0.4933313369750976,0
0.8079872131347656,0.4932134628295898,0
0.8080141067504882,0.4935670852661133,0
0.8081954956054688,0.4933702468872070,0
0.8082921981811523,0.4937925338745117,0
0.8083230972290039,0.4938222885131835,0
0.8085536956787109,0.4938571929931641,0
0.8086652755737305,0.4943264007568359,0
0.8087905883789063,0.4942468643188476,0
0.8088232040405273,0.4945180892944336,0
0.8089702606201171,0.4942903518676758,0
0.8090166091918946,0.4948139190673828,0
0.8089920043945312,0.4947807312011718,0
0.8092557907104492,0.4947916030883789,0
0.8092763900756835,0.4948093414306640,0
0.8094251632690429,0.4950290679931640,0
0.8095012664794922,0.4950519561767578,0
0.8095951080322266,0.4950765609741211,0
0.8095716476440430,0.4952573776245117,0
0.8096082687377929,0.4954942703247070,0
0.8096689224243164,0.4954725265502929,0
0.8097902297973633,0.4954845428466796,0
0.8100185394287109,0.4955366134643555,0
0.8099950790405274,0.4956848144531250,0
0.8099716186523437,0.4957134246826171,0
0.8101152420043946,0.4958982467651367,0
0.8100688934326171,0.4960962295532226,0
0.8102079391479492,0.4961156845092773,0
0.8101404190063476,0.4961036682128906,0
0.8105089187622070,0.4961780548095703,0
0.8103910446166992,0.4964561462402344,0
0.8105054855346679,0.4962999343872070,0
0.8103824615478515,0.4965013504028320,0
0.8103509902954101,0.4963336944580078,0
0.8100872039794922,0.4964229583740234,0
0.8095052719116210,0.4957094192504883,0
0.8096317291259766,0.4952733993530273,0
0.8086647033691406,0.4944248199462891,0
0.8073869705200195,0.4935310363769531,0
0.8073669433593750,0.4926996231079102,0
0.8060171127319335,0.4912124633789062,0
0.8052412033081054,0.4904371261596679,0
0.8038536071777344,0.4887462615966797,0
0.8030067443847656,0.4887496948242187,0
0.8023035049438476,0.4875183105468750,0
0.8021816253662110,0.4871950149536133,0
0.8015378952026367,0.4862749099731445,0
0.8011934280395507,0.4861627578735351,0
0.8010343551635742,0.4858949661254883,0
0.8008403778076172,0.4860368728637695,0
0.8008655548095703,0.4857622146606445,0
0.8011241912841797,0.4858497619628906,0
0.8014057159423827,0.4859338760375976,0
0.8015882492065429,0.4862731933593750,0
0.8015253067016601,0.4864625930786133,0
0.8019498825073242,0.4868911743164062,0
0.8021358489990235,0.4872310638427734,0
0.8024265289306640,0.4875343322753906,0
0.8025724411010742,0.4875211715698242,0
0.8034049987792968,0.4880098342895507,0
0.8032419204711914,0.4884384155273437,0
0.8035720825195313,0.4886415481567383,0
0.8038232803344726,0.4886415481567383,0
0.8043085098266601,0.4894821166992187,0
0.8044761657714844,0.4895736694335937,0
0.8046604156494140,0.4897104263305664,0
0.8048017501831054,0.4898248672485351,0
0.8051959991455078,0.4904983520507812,0
0.8054134368896484,0.4904983520507812,0
0.8055810928344727,0.4906505584716797,0
0.8055810928344727,0.4907878875732422,0
0.8059135437011719,0.4913869857788086,0
0.8059358596801758,0.4914270401000976,0
0.8061830520629882,0.4913841247558594,0
0.8062231063842773,0.4913434982299805,0
0.8063695907592773,0.4917354583740234,0
0.8061847686767578,0.4915031433105468,0
0.8062545776367187,0.4915941238403320,0
0.8062665939331054,0.4916410446166992,0
0.8062505722045898,0.4917715072631836,0
0.8061195373535156,0.4915346145629882,0
0.8062803268432617,0.4914527893066406,0
0.8062992095947266,0.4917371749877930,0
0.8063238143920898,0.4912479400634766,0
0.8060829162597656,0.4913063049316406,0
0.8062814712524414,0.4914081573486328,0
0.8061899185180664,0.4915609359741211,0
0.8060068130493164,0.4914505004882812,0
0.8059329986572266,0.4914705276489257,0
0.8063226699829101,0.4914785385131836,0
0.8062334060668945,0.4916948318481445,0
0.8059976577758788,0.4914865493774414,0
0.8060382843017578,0.4917200088500976,0
0.8062688827514648,0.4920490264892578,0
0.8062477111816406,0.4920490264892578,0
0.8063003540039062,0.4920169830322265,0
0.8065338134765625,0.4919855117797851,0
0.8065921783447265,0.4924266815185547,0
0.8066631317138672,0.4924295425415039,0
0.8068027496337891,0.4924421310424805,0
0.8070905685424804,0.4926246643066406,0
0.8070402145385742,0.4930469512939453,0
0.8073617935180664,0.4931665420532226,0
0.8075374603271485,0.4931968688964843,0
0.8076684951782226,0.4935321807861328,0
0.8076398849487304,0.4936483383178711,0
0.8077503204345703,0.4936483383178711,0
0.8080324172973633,0.4938634872436523,0
0.8079425811767578,0.4938634872436523,0
0.8080038070678711,0.4939956665039062,0
0.8081726074218750,0.4939956665039062,0
0.8082418441772461,0.4942039489746093,0
0.8083253860473633,0.4942039489746093,0
0.8084449768066406,0.4945507049560547,0
0.8084598541259765,0.4945507049560547,0
0.8083705902099609,0.4946050643920898,0
0.8084363937377930,0.4946050643920898,0
0.8088769912719727,0.4948545455932617,0
0.8087888717651367,0.4948545455932617,0
0.8087882995605469,0.4949747085571289,0
0.8090692520141601,0.4949747085571289,0
0.8089685440063477,0.4951063156127929,0
0.8091539382934571,0.4951063156127929,0
0.8091899871826171,0.4954799652099609,0
0.8092575073242188,0.4954799652099609,0
0.8091442108154296,0.4954582214355469,0
0.8092306137084960,0.4954582214355469,0
0.8095882415771484,0.4957248687744140,0
0.8096071243286133,0.4957248687744140,0
0.8095184326171875,0.4958341598510742,0
0.8096992492675781,0.4958341598510742,0
0.8096048355102539,0.4959640502929688,0
0.8097106933593750,0.4959640502929688,0
0.8097570419311523,0.4962135314941406,0
0.8097742080688476,0.4962135314941406,0
0.8096557617187500,0.4962718963623047,0
0.8098033905029297,0.4962718963623047,0
0.8101879119873047,0.4965013504028320,0
0.8100866317749024,0.4965013504028320,0
0.8101186752319336,0.4966615676879882,0
0.8102840423583985,0.4966615676879882,0
0.8103750228881835,0.4967479705810547,0
0.8105587005615235,0.4967479705810547,0
0.8106227874755859,0.4970346450805664,0
0.8106639862060546,0.4970346450805664,0
0.8106330871582031,0.4970821380615234,0
0.8107257843017578,0.4970821380615234,0
0.8111166000366211,0.4973007202148437,0
0.8110198974609375,0.4973007202148437,0
0.8108591079711914,0.4973104476928711,0
0.8110061645507812,0.4973104476928711,0
0.8109134674072266,0.4974008560180664,0
0.8111680984497071,0.4974008560180664,0
0.8112047195434570,0.4976016998291015,0
0.8112161636352538,0.4976016998291015,0
0.8111709594726563,0.4976171493530273,0
0.8111818313598632,0.4976171493530273,0
0.8115594863891601,0.4978071212768554,0
0.8113254547119141,0.4978071212768554,0
0.8112602233886719,0.4977642059326172,0
0.8113683700561524,0.4977642059326172,0
0.8112098693847656,0.4978860855102539,0
0.8113082885742188,0.4978860855102539,0
0.8112607955932617,0.4979999542236328,0
0.8112630844116211,0.4979999542236328,0
0.8111669540405273,0.4980136871337890,0
0.8112436294555664,0.4980136871337890,0
0.8117082595825195,0.4981933593750000,0
0.8116046905517578,0.4981933593750000,0
0.8115497589111328,0.4982019424438476,0
0.8116498947143554,0.4982019424438476,0
0.8115760803222656,0.4981922149658203,0
0.8115972518920899,0.4981922149658203,0
0.8113969802856446,0.4979787826538086,0
0.8111091613769531,0.4979787826538086,0
0.8106016159057617,0.4972291946411133,0
0.8101816177368164,0.4972291946411133,0
0.8099653244018554,0.4962862014770508,0
0.8092271804809570,0.4962862014770508,0
0.8086080551147461,0.4947303771972656,0
0.8080804824829101,0.4947303771972656,0
0.8072874069213867,0.4932472229003906,0
0.8066654205322266,0.4932472229003906,0
0.8058906555175781,0.4917434692382812,0
0.8052309036254882,0.4917434692382812,0
0.8045162200927735,0.4902963638305664,0
0.8040315628051757,0.4902963638305664,0
0.8038204193115234,0.4893058776855468,0
0.8032751083374023,0.4893058776855468,0
0.8028585433959960,0.4883274078369140,0
0.8026359558105468,0.4883274078369140,0
0.8024517059326172,0.4878976821899414,0
0.8023578643798828,0.4878976821899414,0
0.8021369934082031,0.4876338958740234,0
0.8020477294921875,0.4876338958740234,0
0.8019973754882812,0.4876567840576171,0
0.8020414352416992,0.4876567840576171,0
0.8024797439575195,0.4878335952758789,0
0.8023246765136719,0.4878335952758789,0
0.8024190902709961,0.4880813598632812,0
0.8027389526367187,0.4880813598632812,0
0.8027910232543946,0.4884807586669921,0
0.8029380798339844,0.4884807586669921,0
0.8030364990234374,0.4887456893920898,0
0.8030233383178711,0.4887456893920898,0
0.8031257629394531,0.4890764236450195,0
0.8032167434692382,0.4890764236450195,0
0.8037094116210938,0.4894569396972656,0
0.8037425994873046,0.4894569396972656,0
0.8038175582885742,0.4897430419921875,0
0.8040590286254883,0.4897430419921875,0
0.8041351318359374,0.4900926589965820,0
0.8044681549072266,0.4901996612548828,0
0.8043897628784179,0.4904296875000000,0
0.8044630050659179,0.4904296875000000,0
0.8044790267944336,0.4907558441162109,0
0.8046014785766601,0.4907558441162109,0
0.8050271987915039,0.4910974502563477,0
0.8049156188964843,0.4910974502563477,0
0.8050374984741211,0.4913017272949218,0
0.8053527832031250,0.4913017272949218,0
0.8053030014038086,0.4916358947753906,0
0.8054117202758789,0.4916358947753906,0
0.8054740905761718,0.4916725158691406,0
0.8053894042968750,0.4916725158691406,0
0.8052320480346680,0.4917966842651367,0
0.8052806854248047,0.4917966842651367,0
0.8055564880371093,0.4917892456054687,0
0.8053424835205077,0.4917892456054687,0
0.8052663803100586,0.4917612075805664,0
0.8054208755493164,0.4917612075805664,0
0.8051994323730468,0.4917011260986328,0
0.8052263259887695,0.4917011260986328,0
0.8051736831665038,0.4915792465209960,0
0.8051113128662110,0.4915792465209960,0
0.8048646926879882,0.4914493560791016,0
0.8048171997070312,0.4914493560791016,0
0.8050117492675781,0.4913709640502930,0
0.8047988891601562,0.4913709640502930,0
0.8046907424926758,0.4911352157592773,0
0.8047067642211914,0.4911352157592773,0
0.8046678543090821,0.4911163330078125,0
0.8046455383300781,0.4911163330078125,0
0.8046272277832031,0.4909984588623046,0
0.8045551300048828,0.4909984588623046,0
0.8043937683105469,0.4909709930419922,0
0.8043891906738281,0.4909709930419922,0
0.8047027587890625,0.4909606933593750,0
0.8045162200927735,0.4909606933593750,0
0.8044996261596680,0.4909332275390625,0
0.8046197891235352,0.4909332275390625,0
0.8046586990356445,0.4910505294799805,0
0.8048589706420898,0.4910505294799805,0
0.8047519683837890,0.4911895751953125,0
0.8047439575195312,0.4913537979125976,0
0.8050254821777344,0.4913389205932617,0
0.8050254821777344,0.4913801193237304,0
0.8049579620361328,0.4914876937866210,0
0.8051548004150391,0.4914876937866210,0
0.8050695419311523,0.4916633605957031,0
0.8052028656005860,0.4916633605957031,0
0.8051874160766601,0.4917474746704101,0
0.8051462173461914,0.4917474746704101,0
0.8051376342773438,0.4920169830322265,0
0.8051055908203125,0.4920169830322265,0
0.8054386138916015,0.4921331405639648,0
0.8053276062011718,0.4921331405639648,0
0.8054935455322265,0.4922258377075195,0
0.8056560516357422,0.4922258377075195,0
0.8055759429931640,0.4924112319946289,0
0.8057395935058593,0.4924112319946289,0
0.8057069778442383,0.4924736022949219,0
0.8056594848632812,0.4924736022949219,0
0.8055582046508789,0.4926664352416992,0
0.8056554794311523,0.4926664352416992,0
0.8060045242309570,0.4928918838500976,0
0.8059089660644531,0.4928918838500976,0
0.8058723449707031,0.4929531097412109,0
0.8061143875122070,0.4929531097412109,0
0.8061693191528320,0.4932317733764648,0
0.8063598632812500,0.4932317733764648,0
0.8064474105834961,0.4933238983154297,0
0.8063827514648437,0.4933238983154297,0
0.8064022064208984,0.4937152862548828,0
0.8064416885375977,0.4937152862548828,0
0.8067283630371094,0.4938434600830078,0
0.8066179275512695,0.4938434600830078,0
0.8067449569702149,0.4939435958862304,0
0.8069120407104492,0.4939435958862304,0
0.8067764282226563,0.4941890716552734,0
0.8070339202880860,0.4941890716552734,0
0.8070922851562500,0.4942823410034179,0
0.8071128845214843,0.4942823410034179,0
0.8071603775024414,0.4946880340576172,0
0.8072645187377929,0.4946880340576172,0
0.8076015472412109,0.4949026107788086,0
0.8074630737304688,0.4949026107788086,0
0.8076278686523437,0.4949209213256835,0
0.8078842163085938,0.4949209213256835,0
0.8077943801879882,0.4951990127563476,0
0.8079425811767578,0.4951990127563476,0
0.8078979492187500,0.4952459335327148,0
0.8079317092895507,0.4952459335327148,0
0.8078784942626953,0.4955263137817383,0
0.8078710556030273,0.4955263137817383,0
0.8083139419555664,0.4956035614013672,0
0.8081972122192382,0.4956035614013672,0
0.8080633163452148,0.4956047058105468,0
0.8083356857299805,0.4956047058105468,0
0.8083299636840821,0.4958124160766602,0
0.8085393905639648,0.4958124160766602,0
0.8083946228027343,0.4958055496215820,0
0.8084793090820312,0.4958055496215820,0
0.8083820343017578,0.4961414337158203,0
0.8083940505981445,0.4961414337158203,0
0.8086956024169921,0.4961814880371094,0
0.8085422515869141,0.4961814880371094,0
0.8085411071777343,0.4961780548095703,0
0.8086732864379883,0.4961780548095703,0
0.8087030410766601,0.4962976455688476,0
0.8088838577270507,0.4962976455688476,0
0.8088878631591797,0.4964160919189453,0
0.8090051651000977,0.4964160919189453,0
0.8090921401977539,0.4967479705810547,0
0.8091728210449218,0.4967479705810547,0
0.8093290328979492,0.4968618392944336,0
0.8092071533203125,0.4968618392944336,0
0.8091590881347656,0.4967891693115234,0
0.8092477798461913,0.4967891693115234,0
0.8091350555419922,0.4969007492065429,0
0.8094079971313476,0.4969007492065429,0
0.8092432022094727,0.4969316482543945,0
0.8092409133911133,0.4969316482543945,0
0.8092832565307617,0.4973001480102539,0
0.8093376159667969,0.4973001480102539,0
0.8096494674682617,0.4973276138305664,0
0.8095058441162110,0.4973276138305664,0
0.8096906661987304,0.4973058700561523,0
0.8097187042236328,0.4973058700561523,0
0.8095653533935546,0.4970512390136719,0
0.8093851089477538,0.4970512390136719,0
0.8089754104614257,0.4962266921997070,0
0.8085611343383788,0.4962266921997070,0
0.8078950881958008,0.4952836990356445,0
0.8072050094604492,0.4952836990356445,0
0.8067415237426757,0.4937158584594726,0
0.8059020996093750,0.4937158584594726,0
0.8051828384399414,0.4919677734375000,0
0.8045562744140625,0.4919677734375000,0
0.8037311553955078,0.4904279708862305,0
0.8031606674194336,0.4904279708862305,0
0.8023263931274414,0.4888349533081054,0
0.8017444610595703,0.4888349533081054,0
0.8012609481811523,0.4879714965820312,0
0.8007619857788085,0.4879714965820312,0
0.8006269454956054,0.4871160507202148,0
0.8001108169555664,0.4871160507202148,0
0.7998842239379883,0.4865249633789062,0
0.7998418807983398,0.4865249633789062,0
0.7998224258422851,0.4864665985107421,0
0.7999769210815429,0.4864665985107421,0
0.7999591827392578,0.4864728927612305,0
0.8000295639038085,0.4864728927612305,0
0.8001319885253906,0.4870342254638672,0
0.8002819061279297,0.4870342254638672,0
0.8006526947021484,0.4873123168945312,0
0.8006767272949219,0.4873123168945312,0
0.8009359359741210,0.4877042770385742,0
0.8012689590454102,0.4877042770385742,0
0.8012798309326171,0.4882204055786132,0
0.8015201568603515,0.4882204055786132,0
0.8015493392944336,0.4885551452636718,0
0.8018428802490234,0.4885551452636718,0
0.8019721984863281,0.4893075942993164,0
0.8021753311157226,0.4893075942993164,0
0.8025123596191406,0.4895982742309570,0
0.8025255203247070,0.4895982742309570,0
0.8027137756347656,0.4899375915527344,0
0.8030456542968750,0.4899375915527344,0
0.8031183242797851,0.4903718948364257,0
0.8033454895019531,0.4903718948364257,0
0.8033706665039062,0.4905012130737305,0
0.8035354614257812,0.4905012130737305,0
0.8036859512329101,0.4911998748779297,0
0.8038381576538086,0.4911998748779297,0
0.8041540145874023,0.4914699554443359,0
0.8042221069335938,0.4914699554443359,0
0.8044355392456054,0.4917085647583008,0
0.8046821594238281,0.4917085647583008,0
0.8047410964965820,0.4920146942138672,0
0.8048503875732421,0.4920146942138672,0
0.8047645568847656,0.4919889450073242,0
0.8047731399536132,0.4919889450073242,0
0.8047451019287110,0.4923316955566406,0
0.8046981811523437,0.4923316955566406,0
0.8048171997070312,0.4921594619750976,0
0.8046329498291015,0.4921594619750976,0
0.8045671463012695,0.4919002532958984,0
0.8046083450317383,0.4919002532958984,0
0.8045099258422851,0.4918447494506836,0
0.8043588638305664,0.4918447494506836,0
0.8041070938110352,0.4914464950561523,0
0.8040790557861328,0.4914464950561523,0
0.8039319992065429,0.4916273117065429,0
0.8038043975830078,0.4916273117065429,0
0.8038478851318359,0.4912874221801757,0
0.8036453247070312,0.4912874221801757,0
0.8036825180053710,0.4911495208740234,0
0.8037952423095703,0.4911495208740234,0
0.8037883758544921,0.4911563873291016,0
0.8040424346923828,0.4911563873291016,0
0.8038158416748047,0.4911066055297851,0
0.8039543151855468,0.4911066055297851,0
0.8039640426635742,0.4914339065551758,0
0.8037952423095703,0.4914339065551758,0
0.8039520263671874,0.4914052963256836,0
0.8039342880249023,0.4914052963256836,0
0.8039789199829102,0.4914493560791016,0
0.8041643142700196,0.4914493560791016,0
0.8042289733886718,0.4916427612304687,0
0.8043165206909180,0.4916427612304687,0
0.8042816162109375,0.4917257308959961,0
0.8044097900390624,0.4917257308959961,0
0.8045608520507812,0.4923139572143554,0
0.8045619964599610,0.4923139572143554,0
0.8047868728637695,0.4923906326293945,0
0.8047679901123047,0.4923906326293945,0
0.8049333572387695,0.4926458358764648,0
0.8052228927612305,0.4926458358764648,0
0.8051885604858399,0.4929399490356445,0
0.8053596496582031,0.4929399490356445,0
0.8053722381591797,0.4930761337280273,0
0.8055913925170898,0.4930761337280273,0
0.8057178497314453,0.4936912536621094,0
0.8057481765747070,0.4936912536621094,0
0.8059261322021484,0.4937799453735351,0
0.8059467315673828,0.4937799453735351,0
0.8061567306518554,0.4940196990966796,0
0.8063798904418945,0.4940196990966796,0
0.8064273834228516,0.4943206787109375,0
0.8065229415893554,0.4943206787109375,0
0.8064989089965821,0.4943756103515625,0
0.8066087722778320,0.4943756103515625,0
0.8067392349243164,0.4950262069702148,0
0.8067586898803710,0.4950262069702148,0
0.8068874359130859,0.4949701309204101,0
0.8068519592285156,0.4949701309204101,0
0.8070573806762695,0.4951045989990234,0
0.8072856903076172,0.4951045989990234,0
0.8072570800781250,0.4953735351562500,0
0.8073617935180664,0.4953735351562500,0
0.8072656631469727,0.4954170227050781,0
0.8073566436767577,0.4954170227050781,0
0.8074081420898437,0.4959857940673828,0
0.8073755264282226,0.4959857940673828,0
0.8074996948242187,0.4958135604858398,0
0.8074659347534180,0.4958135604858398,0
0.8077423095703125,0.4959726333618164,0
0.8078916549682617,0.4959726333618164,0
0.8078842163085938,0.4962049484252929,0
0.8079236984252930,0.4962049484252929,0
0.8080444335937500,0.4962770462036132,0
0.8081800460815429,0.4962770462036132,0
0.8083122253417968,0.4968023300170898,0
0.8083265304565429,0.4968023300170898,0
0.8084020614624023,0.4967496871948242,0
0.8082498550415039,0.4967496871948242,0
0.8085296630859374,0.4968320846557617,0
0.8086429595947265,0.4968320846557617,0
0.8086200714111328,0.4969757080078125,0
0.8086835861206054,0.4969757080078125,0
0.8086229324340820,0.4969619750976562,0
0.8086956024169921,0.4969619750976562,0
0.8088232040405273,0.4974443435668945,0
0.8087917327880859,0.4974443435668945,0
0.8088809967041015,0.4973510742187500,0
0.8088048934936524,0.4973510742187500,0
0.8090074539184570,0.4974723815917969,0
0.8090927124023437,0.4974723815917969,0
0.8090709686279297,0.4975444793701171,0
0.8091419219970702,0.4975444793701171,0
0.8090171813964844,0.4975513458251953,0
0.8092306137084960,0.4975513458251953,0
0.8092615127563476,0.4980360031127929,0
0.8092065811157226,0.4980360031127929,0
0.8092506408691406,0.4978591918945312,0
0.8091739654541016,0.4978591918945312,0
0.8093341827392578,0.4978849411010742,0
0.8094348907470703,0.4978849411010742,0
0.8094280242919921,0.4980766296386718,0
0.8094022750854492,0.4980766296386718,0
0.8093576431274414,0.4980817794799804,0
0.8095252990722656,0.4980817794799804,0
0.8095613479614258,0.4985727310180664,0
0.8095607757568359,0.4985727310180664,0
0.8096952438354492,0.4985183715820312,0
0.8097284317016601,0.4985183715820312,0
0.8097759246826172,0.4985269546508789,0
0.8100059509277343,0.4985269546508789,0
0.8098039627075195,0.4985990524291992,0
0.8098068237304688,0.4985990524291992,0
0.8095556259155273,0.4982929229736328,0
0.8095041275024414,0.4982929229736328,0
0.8092763900756835,0.4982345581054687,0
0.8089817047119140,0.4982345581054687,0
0.8086509704589844,0.4973155975341796,0
0.8081468582153321,0.4973155975341796,0
0.8077972412109374,0.4962873458862305,0
0.8074161529541015,0.4962873458862305,0
0.8067958831787109,0.4950628280639648,0
0.8062316894531250,0.4950628280639648,0
0.8055507659912109,0.4936792373657226,0
0.8050649642944335,0.4936792373657226,0
0.8046072006225585,0.4928512573242188,0
0.8040052413940429,0.4928512573242188,0
0.8035577774047852,0.4916273117065429,0
0.8030988693237304,0.4916273117065429,0
0.8029701232910156,0.4908422470092773,0
0.8028093338012695,0.4908422470092773,0
0.8024505615234375,0.4904439926147461,0
0.8022314071655273,0.4904439926147461,0
0.8020746231079101,0.4901367187500000,0
0.8021575927734375,0.4901367187500000,0
0.8021690368652343,0.4904949188232421,0
0.8021192550659180,0.4904949188232421,0
0.8022113800048828,0.4904502868652343,0
0.8022096633911132,0.4904502868652343,0
0.8025541305541992,0.4907552719116210,0
0.8027967453002930,0.4907552719116210,0
0.8028505325317382,0.4911952972412109,0
0.8030771255493164,0.4911952972412109,0
0.8031572341918946,0.4915391921997070,0
0.8035566329956054,0.4917829513549805,0
0.8037849426269531,0.4924495697021484,0
0.8039663314819335,0.4926269531250000,0
0.8045036315917968,0.4929983139038085,0
0.8048229217529297,0.4929765701293945,0
0.8050752639770508,0.4934566497802734,0
0.8049819946289062,0.4936082839965820,0
0.8055496215820312,0.4940958023071289,0
0.8057579040527344,0.4946537017822266,0
0.8060480117797851,0.4944814682006836,0
0.8062986373901367,0.4948442459106445,0
0.8064920425415039,0.4949443817138672,0
0.8065938949584961,0.4952796936035156,0
0.8068153381347656,0.4958759307861328,0
0.8068725585937500,0.4957099914550781,0
0.8068519592285156,0.4957426071166992,0
0.8067907333374024,0.4956710815429687,0
0.8068456649780273,0.4956996917724609,0
0.8065813064575195,0.4955938339233398,0
0.8064817428588867,0.4955938339233398,0
0.8064422607421875,0.4953941345214843,0
0.8063655853271484,0.4955223083496094,0
0.8062946319580078,0.4953128814697265,0
0.8061223983764648,0.4952882766723632,0
0.8063283920288086,0.4952527999877929,0
0.8063570022583008,0.4955446243286132,0
0.8063055038452148,0.4953626632690429,0
0.8064159393310547,0.4954072952270507,0
0.8064411163330077,0.4956218719482421,0
0.8064897537231445,0.4954753875732422,0
0.8065292358398437,0.4955738067626953,0
0.8066745758056640,0.4959754943847656,0
0.8067386627197265,0.4960441589355469,0
0.8068164825439453,0.4959760665893554,0
0.8072845458984375,0.4961568832397460,0
0.8071809768676758,0.4963726043701172,0
0.8072908401489257,0.4964189529418945,0
0.8078104019165039,0.4966032028198242,0
0.8077800750732421,0.4967416763305664,0
0.8080038070678711,0.4968852996826172,0
0.8079397201538085,0.4970249176025390,0
0.8081405639648437,0.4970947265625000,0
0.8081531524658203,0.4972515106201172,0
0.8081565856933594,0.4973110198974609,0
0.8082126617431641,0.4973402023315430,0
0.8084043502807617,0.4977378845214844,0
0.8083683013916015,0.4977378845214844,0
0.8085920333862304,0.4977664947509766,0
0.8085920333862304,0.4978460311889648,0
0.8087905883789063,0.4980892181396484,0
0.8088071823120117,0.4980834960937500,0
0.8088357925415038,0.4981504440307617,0
0.8090898513793945,0.4981504440307617,0
0.8090108871459961,0.4984548568725586,0
0.8091373443603516,0.4983306884765625,0
0.8091459274291992,0.4985057830810546,0
0.8092203140258789,0.4984972000122070,0
0.8091991424560546,0.4986717224121093,0
0.8091207504272461,0.4986717224121093,0
0.8094635009765625,0.4988056182861328,0
0.8094331741333007,0.4989063262939453,0
0.8095716476440430,0.4989114761352539,0
0.8093364715576171,0.4989744186401367,0
0.8095865249633789,0.4989778518676757,0
0.8095161437988281,0.4989778518676757,0
0.8093793869018554,0.4991077423095703,0
0.8093793869018554,0.4991695404052734,0
0.8097352981567383,0.4992565155029297,0
0.8096632003784180,0.4993715286254883,0
0.8098171234130859,0.4992759704589844,0
0.8097839355468750,0.4994029998779297,0
0.8098731994628906,0.4993955612182617,0
0.8098915100097656,0.4995323181152344,0
0.8097690582275391,0.4995323181152344,0
0.8101163864135742,0.4996164321899414,0
0.8101032257080077,0.4997079849243164,0
0.8102205276489257,0.4996936798095703,0
0.8100408554077149,0.4998453140258789,0
0.8103567123413086,0.4999219894409179,0
0.8102336883544922,0.4999219894409179,0
0.8100809097290039,0.4999591827392578,0
0.8100809097290039,0.4999534606933593,0
0.8102891921997070,0.4998115539550781,0
0.8099733352661133,0.4997606277465820,0
0.8092752456665039,0.4991718292236328,0
0.8089147567749023,0.4991718292236328,0
0.8082406997680663,0.4983346939086914,0
0.8082406997680663,0.4979066848754883,0
0.8071598052978516,0.4966913223266601,0
0.8067335128784180,0.4962873458862305,0
0.8051565170288085,0.4946908950805664,0
0.8047428131103516,0.4939527511596680,0
0.8046861648559570,0.4936317443847656,0
0.8041145324707031,0.4931980133056640,0
0.8039611816406250,0.4932575225830078,0
0.8039560317993164,0.4930309295654297,0
0.8040538787841797,0.4930412292480468,0
0.8038845062255859,0.4930967330932617,0
0.8040321350097656,0.4933267593383789,0
0.8042123794555663,0.4933101654052734,0
0.8043182373046874,0.4936935424804687,0
0.8044424057006836,0.4938251495361328,0
0.8046649932861328,0.4942800521850585,0
0.8050117492675781,0.4941581726074218,0
0.8052698135375976,0.4946754455566406,0
0.8052680969238281,0.4948230743408203,0
0.8057172775268554,0.4952573776245117,0
0.8060811996459961,0.4953804016113281,0
0.8062688827514648,0.4957849502563476,0
0.8064491271972656,0.4958387374877929,0
0.8069681167602539,0.4961952209472656,0
0.8069675445556640,0.4964355468750000,0
0.8070837020874023,0.4967416763305664,0
0.8071437835693359,0.4969179153442382,0
0.8078012466430664,0.4971885681152344,0
0.8078287124633788,0.4971920013427734,0
0.8078624725341796,0.4974655151367187,0
0.8077308654785156,0.4976835250854492,0
0.8081880569458008,0.4977653503417969,0
0.8080787658691406,0.4979135513305664,0
0.8082389831542969,0.4979181289672852,0
0.8081754684448242,0.4980154037475586,0
0.8083013534545899,0.4979707717895507,0
0.8080129623413086,0.4979003906250000,0
0.8079746246337890,0.4979833602905273,0
0.8081205368041992,0.4978809356689453,0
0.8081205368041992,0.4979026794433594,0
0.8078464508056641,0.4977802276611328,0
0.8076908111572265,0.4977882385253906,0
0.8080587387084961,0.4977355957031250,0
0.8079797744750976,0.4977355957031250,0
0.8077314376831054,0.4976812362670898,0
0.8075969696044921,0.4976251602172851,0
0.8078372955322265,0.4976463317871094,0
0.8076347351074219,0.4977344512939453,0
0.8075654983520507,0.4977310180664062,0
0.8075254440307617,0.4977321624755859,0
0.8078435897827149,0.4976623535156250,0
0.8077154159545898,0.4977968215942383,0
0.8076536178588867,0.4978305816650390,0
0.8077749252319336,0.4979850769042968,0
0.8078584671020508,0.4980680465698242,0
0.8078716278076171,0.4980182647705078,0
0.8078716278076171,0.4981916427612305,0
0.8083076477050781,0.4981830596923828,0
0.8082332611083984,0.4982957839965820,0
0.8082109451293945,0.4984628677368164,0
0.8084587097167969,0.4985206604003906,0
0.8083745956420898,0.4985446929931641,0
0.8083946228027343,0.4985733032226562,0
0.8085811614990234,0.4985733032226562,0
0.8084959030151367,0.4988439559936523,0
0.8086933135986328,0.4988439559936523,0
0.8086732864379883,0.4988851547241211,0
0.8086326599121093,0.4988851547241211,0
0.8086338043212891,0.4990247726440429,0
0.8085891723632812,0.4990247726440429,0
0.8089960098266601,0.4992118835449219,0
0.8088455200195312,0.4992118835449219,0
0.8088306427001953,0.4993228912353516,0
0.8090543746948242,0.4993228912353516,0
0.8089988708496093,0.4994670867919921,0
0.8091768264770508,0.4994670867919921,0
0.8091304779052734,0.4995128631591796,0
0.8090927124023437,0.4995128631591796,0
0.8090595245361328,0.4996358871459960,0
0.8090921401977539,0.4996358871459960,0
0.8094085693359375,0.4997022628784180,0
0.8092535018920898,0.4997022628784180,0
0.8092506408691406,0.4997789382934570,0
0.8094045639038085,0.4997789382934570,0
0.8093233108520508,0.4999700546264648,0
0.8095035552978516,0.4999700546264648,0
0.8094594955444335,0.4999597549438476,0
0.8094783782958984,0.4999597549438476,0
0.8094703674316406,0.5001600265502929,0
0.8094429016113281,0.5001600265502929,0
0.8097793579101562,0.5002252578735351,0
0.8096637725830078,0.5002252578735351,0
0.8096231460571289,0.5002206802368164,0
0.8098199844360351,0.5002206802368164,0
0.8097003936767578,0.5003654479980468,0
0.8098978042602539,0.5003654479980468,0
0.8097896575927734,0.5003396987915039,0
0.8097913742065429,0.5003396987915039,0
0.8097564697265625,0.5005874633789062,0
0.8097719192504883,0.5005874633789062,0
0.8100677490234375,0.5006183624267578,0
0.8098743438720702,0.5006183624267578,0
0.8098651885986328,0.5006366729736328,0
0.8100471496582031,0.5006366729736328,0
0.8099418640136719,0.5006750106811523,0
0.8100534439086914,0.5006750106811523,0
0.8098823547363281,0.5005914688110351,0
0.8098125457763672,0.5005914688110351,0
0.8095350265502930,0.5003631591796874,0
0.8093164443969726,0.5003631591796874,0
0.8093662261962891,0.4998470306396484,0
0.8087945938110351,0.4998470306396484,0
0.8083957672119141,0.4989160537719726,0
0.8081262588500976,0.4989160537719726,0
0.8076576232910156,0.4979581832885742,0
0.8071735382080077,0.4979581832885742,0
0.8065366744995117,0.4967508316040039,0
0.8059741973876953,0.4967508316040039,0
0.8054529190063476,0.4957809448242188,0
0.8050220489501952,0.4957809448242188,0
0.8049802780151367,0.4947515487670898,0
0.8044309616088867,0.4947515487670898,0
0.8040704727172852,0.4939464569091797,0
0.8038370132446289,0.4939464569091797,0
0.8035943984985351,0.4935573577880859,0
0.8034896850585938,0.4935573577880859,0
0.8032808303833008,0.4931819915771484,0
0.8031475067138671,0.4931819915771484,0
0.8031229019165039,0.4931894302368164,0
0.8031051635742187,0.4931894302368164,0
0.8033277511596679,0.4932804107666016,0
0.8032739639282226,0.4932804107666016,0
0.8033826828002929,0.4934583663940429,0
0.8036149978637696,0.4934583663940429,0
0.8037981033325196,0.4938423156738281,0
0.8040578842163085,0.4938423156738281,0
0.8041202545166015,0.4941415786743164,0
0.8043182373046874,0.4941415786743164,0
0.8043445587158203,0.4947492599487304,0
0.8045717239379883,0.4947492599487304,0
0.8050043106079101,0.4950891494750976,0
0.8050128936767578,0.4950891494750976,0
0.8051227569580078,0.4954181671142578,0
0.8053768157958984,0.4954181671142578,0
0.8054574966430664,0.4958204269409179,0
0.8057275772094726,0.4958204269409179,0
0.8057052612304687,0.4961254119873046,0
0.8059181213378906,0.4961254119873046,0
0.8061367034912109,0.4965774536132812,0
0.8062728881835938,0.4965774536132812,0
0.8065921783447265,0.4969104766845703,0
0.8065177917480468,0.4969104766845703,0
0.8066362380981446,0.4971496582031250,0
0.8068479537963867,0.4971496582031250,0
0.8068948745727539,0.4975067138671875,0
0.8071529388427734,0.4975067138671875,0
0.8071781158447265,0.4976205825805664,0
0.8071695327758789,0.4976205825805664,0
0.8071844100952148,0.4979907989501953,0
0.8072782516479492,0.4979907989501953,0
0.8074470520019531,0.4979318618774414,0
0.8072170257568360,0.4979318618774414,0
0.8072238922119140,0.4979370117187500,0
0.8071186065673828,0.4979370117187500,0
0.8072170257568360,0.4980171203613281,0
0.8073348999023438,0.4980171203613281,0
0.8072553634643554,0.4978689193725586,0
0.8071918487548828,0.4978689193725586,0
0.8070379257202148,0.4979753494262695,0
0.8071374893188477,0.4978483200073242,0
0.8070356369018554,0.4976457595825195,0
0.8069377899169922,0.4976457595825195,0
0.8068016052246093,0.4977996826171875,0
0.8070213317871093,0.4975719451904297,0
0.8069326400756835,0.4975719451904297,0
0.8068244934082031,0.4975868225097656,0
0.8067890167236328,0.4975868225097656,0
0.8068359374999999,0.4976434707641602,0
0.8070276260375976,0.4976434707641602,0
0.8068588256835937,0.4975112915039062,0
0.8067729949951171,0.4975112915039062,0
0.8067775726318359,0.4978282928466797,0
0.8068319320678711,0.4978282928466797,0
0.8070854187011719,0.4976646423339843,0
0.8069984436035156,0.4976646423339843,0
0.8069280624389649,0.4978082656860351,0
0.8070001602172852,0.4978082656860351,0
0.8070522308349609,0.4979742050170898,0
0.8071889877319336,0.4979742050170898,0
0.8070528030395507,0.4979244232177734,0
0.8070402145385742,0.4979244232177734,0
0.8071117401123047,0.4983078002929687,0
0.8071615219116210,0.4983078002929687,0
0.8074613571166992,0.4982494354248047,0
0.8073829650878906,0.4982494354248047,0
0.8073795318603515,0.4984537124633789,0
0.8074264526367188,0.4984537124633789,0
0.8074361801147460,0.4986694335937500,0
0.8076850891113281,0.4986694335937500,0
0.8076004028320313,0.4986087799072265,0
0.8075775146484375,0.4986087799072265,0
0.8076570510864257,0.4990470886230469,0
0.8077754974365234,0.4990470886230469,0
0.8080598831176757,0.4990167617797852,0
0.8081371307373046,0.4990167617797852,0
0.8080060958862304,0.4991958618164062,0
0.8081159591674805,0.4991958618164062,0
0.8081617355346680,0.4994333267211914,0
0.8084112167358398,0.4994333267211914,0
0.8083780288696288,0.4994058609008789,0
0.8082899093627930,0.4994058609008789,0
0.8083070755004883,0.4997858047485351,0
0.8083820343017578,0.4997858047485351,0
0.8087648391723633,0.4997457504272461,0
0.8086812973022460,0.4997457504272461,0
0.8085199356079101,0.4998355865478515,0
0.8085742950439453,0.4998355865478515,0
0.8086029052734375,0.4999483108520508,0
0.8087768554687500,0.4999483108520508,0
0.8086120605468750,0.4999288558959961,0
0.8085794448852539,0.4999288558959961,0
0.8085365295410156,0.5002063751220703,0
0.8085662841796875,0.5002063751220703,0
0.8088237762451171,0.5000988006591797,0
0.8087619781494141,0.5000988006591797,0
0.8087236404418945,0.5002412796020508,0
0.8087408065795898,0.5002412796020508,0
0.8087179183959960,0.5003396987915039,0
0.8090114593505859,0.5003396987915039,0
0.8089027404785156,0.5003208160400391,0
0.8088415145874023,0.5003208160400391,0
0.8089113235473633,0.5007041931152344,0
0.8089548110961914,0.5007041931152344,0
0.8092735290527343,0.5005508422851562,0
0.8091957092285156,0.5005508422851562,0
0.8092157363891601,0.5007608413696288,0
0.8092088699340820,0.5007608413696288,0
0.8091299057006835,0.5008455276489258,0
0.8094165802001952,0.5008455276489258,0
0.8092563629150390,0.5007081985473633,0
0.8091344833374023,0.5007081985473633,0
0.8090995788574219,0.5009199142456054,0
0.8090423583984375,0.5009199142456054,0
0.8090669631958007,0.5004066467285156,0
0.8087734222412110,0.5004066467285156,0
0.8083866119384765,0.4998819351196289,0
0.8079694747924805,0.4998819351196289,0
0.8074939727783202,0.4989355087280273,0
0.8072135925292968,0.4989355087280273,0
0.8064605712890625,0.4974941253662109,0
0.8057275772094726,0.4974941253662109,0
0.8050626754760742,0.4963331222534180,0
0.8044509887695312,0.4963331222534180,0
0.8040452957153320,0.4947584152221680,0
0.8034278869628906,0.4947584152221680,0
0.8028270721435546,0.4935659408569336,0
0.8022274017333985,0.4935659408569336,0
0.8017530441284180,0.4925611495971680,0
0.8014904022216797,0.4925611495971680,0
0.8010492324829102,0.4917858123779297,0
0.8010120391845703,0.4917858123779297,0
0.8007402420043945,0.4916221618652343,0
0.8006469726562500,0.4916221618652343,0
0.8008077621459960,0.4914321899414062,0
0.8007402420043945,0.4914321899414062,0
0.8007539749145508,0.4915163040161132,0
0.8006881713867188,0.4915163040161132,0
0.8007894515991211,0.4917657852172851,0
0.8011493682861328,0.4917657852172851,0
0.8011167526245117,0.4918790817260742,0
0.8011499404907226,0.4918790817260742,0
0.8013868331909180,0.4924409866333008,0
0.8014623641967773,0.4924409866333008,0
0.8019126892089844,0.4926275253295898,0
0.8019990921020508,0.4926275253295898,0
0.8020769119262695,0.4929874420166016,0
0.8021026611328125,0.4929874420166016,0
0.8022130966186524,0.4932741165161132,0
0.8026136398315430,0.4932741165161132,0
0.8025392532348633,0.4933708190917969,0
0.8024831771850586,0.4933708190917969,0
0.8026588439941406,0.4939773559570312,0
0.8027240753173828,0.4939773559570312,0
0.8031074523925781,0.4939790725708008,0
0.8031692504882812,0.4939790725708008,0
0.8032144546508789,0.4943017959594727,0
0.8031629562377930,0.4943017959594727,0
0.8033306121826171,0.4945850372314453,0
0.8036149978637696,0.4945850372314453,0
0.8035720825195313,0.4946508407592773,0
0.8035360336303711,0.4946508407592773,0
0.8036344528198242,0.4951555252075195,0
0.8036825180053710,0.4951555252075195,0
0.8038930892944336,0.4951303482055664,0
0.8038415908813477,0.4951303482055664,0
0.8040367126464844,0.4954267501831054,0
0.8040681838989258,0.4954267501831054,0
0.8041213989257813,0.4956665039062500,0
0.8043960571289063,0.4956665039062500,0
0.8042942047119140,0.4955314636230468,0
0.8042593002319336,0.4955314636230468,0
0.8042901992797852,0.4959697723388672,0
0.8043806076049804,0.4959697723388672,0
0.8045236587524414,0.4957592010498046,0
0.8044532775878906,0.4957592010498046,0
0.8045093536376953,0.4958690643310547,0
0.8044452667236328,0.4958690643310547,0
0.8044246673583985,0.4959400177001953,0
0.8046615600585937,0.4959400177001953,0
0.8045104980468750,0.4957489013671875,0
0.8044618606567383,0.4957489013671875,0
0.8044401168823242,0.4960081100463867,0
0.8045099258422851,0.4960081100463867,0
0.8046043395996093,0.4958044052124023,0
0.8045368194580078,0.4958044052124023,0
0.8045562744140625,0.4958747863769531,0
0.8045122146606445,0.4958747863769531,0
0.8045082092285156,0.4959886550903320,0
0.8047267913818359,0.4959886550903320,0
0.8046426773071289,0.4958404541015625,0
0.8045837402343750,0.4958404541015625,0
0.8046718597412109,0.4962764739990234,0
0.8048200607299805,0.4962764739990234,0
0.8049642562866210,0.4961906433105469,0
0.8049900054931640,0.4961906433105469,0
0.8049985885620117,0.4963788986206055,0
0.8050146102905273,0.4963788986206055,0
0.8050352096557617,0.4965167999267578,0
0.8051925659179687,0.4965167999267578,0
0.8051433563232422,0.4965167999267578,0
0.8051456451416016,0.4965167999267578,0
0.8051937103271484,0.4970146179199219,0
0.8052577972412109,0.4970146179199219,0
0.8053562164306640,0.4969104766845703,0
0.8054489135742188,0.4969104766845703,0
0.8055427551269531,0.4971387863159180,0
0.8054803848266602,0.4971387863159180,0
0.8054294586181641,0.4973894119262695,0
0.8056972503662109,0.4973894119262695,0
0.8057561874389648,0.4974140167236328,0
0.8057464599609375,0.4974140167236328,0
0.8058889389038085,0.4979078292846679,0
0.8060194015502929,0.4979078292846679,0
0.8062465667724609,0.4978992462158203,0
0.8063346862792968,0.4978992462158203,0
0.8064554214477538,0.4981138229370117,0
0.8063587188720703,0.4981138229370117,0
0.8063581466674804,0.4983238220214843,0
0.8065881729125977,0.4983238220214843,0
0.8064949035644531,0.4982534408569336,0
0.8065206527709960,0.4982534408569336,0
0.8065795898437500,0.4987220764160156,0
0.8066940307617188,0.4987220764160156,0
0.8068450927734375,0.4986700057983398,0
0.8068479537963867,0.4986700057983398,0
0.8068977355957031,0.4988605499267578,0
0.8069108963012696,0.4988605499267578,0
0.8069131851196288,0.4990327835083008,0
0.8071638107299804,0.4990327835083008,0
0.8071048736572265,0.4990064620971679,0
0.8071414947509765,0.4990064620971679,0
0.8071580886840820,0.4993921279907226,0
0.8072576522827148,0.4993921279907226,0
0.8073268890380859,0.4993331909179687,0
0.8073898315429687,0.4993331909179687,0
0.8074550628662109,0.4994476318359375,0
0.8074522018432617,0.4994476318359375,0
0.8074018478393554,0.4997062683105469,0
0.8076381683349609,0.4997062683105469,0
0.8076278686523437,0.4996450424194336,0
0.8076101303100586,0.4996450424194336,0
0.8077537536621093,0.5001222610473632,0
0.8078641891479492,0.5001222610473632,0
0.8078956604003906,0.4999546051025390,0
0.8078956604003906,0.4999546051025390,0
0.8079059600830077,0.5000467300415039,0
0.8078018188476562,0.5000467300415039,0
0.8076759338378906,0.4999872207641601,0
0.8077634811401367,0.4999872207641601,0
0.8074939727783202,0.4994436264038086,0
0.8071701049804687,0.4994436264038086,0
0.8068084716796875,0.4989772796630859,0
0.8063632965087890,0.4989772796630859,0
0.8059690475463867,0.4976892471313477,0
0.8053253173828124,0.4976892471313477,0
0.8048040390014648,0.4964092254638672,0
0.8041511535644531,0.4964092254638672,0
0.8034553527832031,0.4950788497924805,0
0.8030433654785156,0.4950788497924805,0
0.8023612976074218,0.4936105728149414,0
0.8017845153808594,0.4936105728149414,0
0.8013868331909180,0.4928089141845703,0
0.8009136199951171,0.4928089141845703,0
0.8005794525146485,0.4918664932250976,0
0.8002372741699219,0.4918664932250976,0
0.8001565933227539,0.4913572311401367,0
0.7999139785766601,0.4913572311401367,0
0.7997840881347656,0.4911249160766601,0
0.7999334335327148,0.4911249160766601,0
0.7998825073242187,0.4910402297973633,0
0.7998624801635742,0.4910402297973633,0
0.8000370025634765,0.4914871215820312,0
0.8000982284545898,0.4914871215820312,0
0.8002756118774413,0.4916124343872070,0
0.8004638671875000,0.4916124343872070,0
0.8007196426391602,0.4921239852905273,0
0.8008083343505860,0.4921239852905273,0
0.8009525299072265,0.4925428390502929,0
0.8013227462768554,0.4925428390502929,0
0.8013502120971679,0.4927865982055664,0
0.8015384674072266,0.4927865982055664,0
0.8017747879028320,0.4934949874877930,0
0.8019418716430664,0.4934949874877930,0
0.8020763397216797,0.4936769485473633,0
0.8022148132324218,0.4936769485473633,0
0.8024791717529297,0.4941226959228515,0
0.8025678634643555,0.4941226959228515,0
0.8027183532714843,0.4944688796997070,0
0.8030319213867188,0.4944688796997070,0
0.8030817031860351,0.4946674346923828,0
0.8032316207885742,0.4946674346923828,0
0.8034147262573242,0.4952642440795898,0
0.8034902572631836,0.4952642440795898,0
0.8036167144775390,0.4954072952270507,0
0.8036882400512695,0.4954072952270507,0
0.8039360046386719,0.4957683563232422,0
0.8039703369140625,0.4957683563232422,0
0.8040504455566406,0.4960281372070312,0
0.8042335510253906,0.4960281372070312,0
0.8041723251342773,0.4960132598876953,0
0.8041934967041016,0.4960132598876953,0
0.8043651580810547,0.4963491439819336,0
0.8042827606201172,0.4963491439819336,0
0.8042695999145507,0.4962999343872070,0
0.8043102264404297,0.4962999343872070,0
0.8044143676757812,0.4964035034179687,0
0.8043319702148437,0.4964035034179687,0
0.8042392730712891,0.4964303970336914,0
0.8043863296508789,0.4964303970336914,0
0.8043497085571288,0.4962718963623047,0
0.8043622970581055,0.4962718963623047,0
0.8043737411499023,0.4964521408081055,0
0.8043102264404297,0.4964521408081055,0
0.8041322708129882,0.4962232589721680,0
0.8041042327880860,0.4962232589721680,0
0.8042695999145507,0.4962100982666016,0
0.8041397094726562,0.4962100982666016,0
0.8041088104248046,0.4962541580200195,0
0.8042507171630859,0.4962541580200195,0
0.8041820526123047,0.4962003707885742,0
0.8042112350463867,0.4962003707885742,0
0.8041276931762695,0.4964075088500977,0
0.8041522979736327,0.4964075088500977,0
0.8041362762451172,0.4963674545288086,0
0.8041419982910156,0.4963674545288086,0
0.8043720245361328,0.4965133666992188,0
0.8042301177978516,0.4965133666992188,0
0.8042839050292968,0.4965785980224609,0
0.8045185089111327,0.4965785980224609,0
0.8044366836547852,0.4966484069824219,0
0.8044624328613281,0.4966484069824219,0
0.8045562744140625,0.4969762802124023,0
0.8046501159667968,0.4969762802124023,0
0.8046020507812500,0.4969688415527344,0
0.8047153472900390,0.4969688415527344,0
0.8049688339233398,0.4971971511840820,0
0.8049528121948242,0.4971971511840820,0
0.8049001693725586,0.4975187301635742,0
0.8048709869384766,0.4974403381347656,0
0.8051473617553710,0.4974403381347656,0
0.8053350448608398,0.4978511810302734,0
0.8053642272949219,0.4978511810302734,0
0.8053882598876952,0.4978689193725586,0
0.8054512023925781,0.4978689193725586,0
0.8057024002075195,0.4980840682983398,0
0.8055742263793945,0.4980840682983398,0
0.8056291580200196,0.4982053756713867,0
0.8058391571044922,0.4982053756713867,0
0.8058649063110351,0.4983518600463867,0
0.8058683395385742,0.4983518600463867,0
0.8060337066650390,0.4986070632934570,0
0.8060657501220703,0.4986070632934570,0
0.8059741973876953,0.4986888885498046,0
0.8060091018676757,0.4986888885498046,0
0.8063140869140625,0.4988977432250976,0
0.8063037872314452,0.4988977432250976,0
0.8062557220458985,0.4989715576171875,0
0.8062116622924804,0.4990036010742187,0
0.8064737319946289,0.4991048812866211,0
0.8064868927001952,0.4993394851684570,0
0.8065074920654297,0.4992971420288086,0
0.8065223693847656,0.4992736816406250,0
0.8067255020141602,0.4997159957885742,0
0.8067129135131835,0.4997159957885742,0
0.8067546844482422,0.4996175765991211,0
0.8068565368652344,0.4996261596679688,0
0.8070619583129882,0.4998361587524414,0
0.8068954467773437,0.4998790740966796,0
0.8069812774658203,0.4997989654541015,0
0.8071271896362304,0.5002080917358398,0
0.8069446563720702,0.5000976562500000,0
0.8069137573242188,0.5000782012939453,0
0.8072799682617188,0.5001451492309570,0
0.8072834014892578,0.5002807617187500,0
0.8071472167968750,0.5002807617187500,0
0.8074710845947265,0.5003608703613281,0
0.8074092864990234,0.5004856109619140,0
0.8072616577148437,0.5004690170288085,0
0.8072027206420899,0.5002939224243164,0
0.8072490692138672,0.5001817703247070,0
0.8067106246948242,0.4997119903564453,0
0.8061813354492188,0.4990957260131836,0
0.8055015563964844,0.4986236572265625,0
0.8041975021362304,0.4975776672363281,0
0.8041912078857422,0.4967525482177734,0
0.8029169082641602,0.4952728271484375,0
0.8024585723876952,0.4945215225219726,0
0.8012672424316406,0.4932632446289062,0
0.8001823425292969,0.4928180694580078,0
0.8002475738525391,0.4923139572143554,0
0.7996770858764648,0.4918453216552734,0
0.7991386413574219,0.4913721084594727,0
0.7989704132080078,0.4913726806640625,0
0.7993463516235352,0.4912130355834960,0
0.7993463516235352,0.4914236068725586,0
0.7993583679199219,0.4914871215820312,0
0.7994241714477539,0.4916067123413086,0
0.7998876571655273,0.4922109603881836,0
0.7999208450317382,0.4924015045166015,0
0.8001989364624024,0.4924964904785156,0
0.8005954742431640,0.4928695678710937,0
0.8008089065551758,0.4932483673095703,0
0.8010171890258789,0.4935590744018554,0
0.8012197494506835,0.4938875198364258,0
0.8016883850097656,0.4942680358886719,0
0.8017044067382812,0.4942680358886719,0
0.8018703460693359,0.4945140838623047,0
0.8020809173583984,0.4947217941284179,0
0.8024522781372070,0.4950553894042968,0
0.8025873184204101,0.4951623916625976,0
0.8028465270996094,0.4956985473632812,0
0.8031280517578124,0.4955377578735352,0
0.8031343460083008,0.4960201263427734,0
0.8031206130981445,0.4959829330444336,0
0.8034610748291016,0.4962341308593750,0
0.8037351608276367,0.4962890625000000,0
0.8036230087280273,0.4963720321655273,0
0.8036573410034179,0.4964876174926758,0
0.8038078308105469,0.4965179443359375,0
0.8038524627685547,0.4966243743896484,0
0.8037145614624023,0.4966146469116210,0
0.8035766601562500,0.4965980529785156,0
0.8038478851318359,0.4965522766113281,0
0.8038558959960938,0.4965740203857422,0
0.8035406112670899,0.4964670181274414,0
0.8034490585327149,0.4964281082153320,0
0.8036281585693359,0.4964218139648438,0
0.8034999847412109,0.4964996337890625,0
0.8032608032226562,0.4963125228881836,0
0.8034038543701172,0.4963520050048828,0
0.8035978317260742,0.4962415695190430,0
0.8034307479858398,0.4964023590087890,0
0.8032676696777343,0.4963823318481445,0
0.8036573410034179,0.4965877532958984,0
0.8034484863281249,0.4965877532958984,0
0.8037019729614258,0.4965196609497070,0
0.8036659240722656,0.4966958999633789,0
0.8039577484130859,0.4966976165771484,0
0.8038061141967773,0.4967742919921875,0
0.8038106918334961,0.4969076156616211,0
0.8041145324707031,0.4970449447631836,0
0.8041534423828125,0.4971817016601562,0
0.8040567398071289,0.4972194671630859,0
0.8039915084838867,0.4973505020141601,0
0.8045173645019531,0.4974443435668945,0
0.8044418334960938,0.4974615097045898,0
0.8044727325439452,0.4976772308349609,0
0.8043188095092774,0.4977773666381836,0
0.8046798706054688,0.4980068206787109,0
0.8046827316284180,0.4980731964111328,0
0.8046197891235352,0.4981595993041992,0
0.8046604156494140,0.4981962203979492,0
0.8051799774169922,0.4982500076293945,0
0.8049894332885742,0.4983890533447266,0
0.8049791336059570,0.4985818862915039,0
0.8050460815429688,0.4985818862915039,0
0.8053522109985352,0.4987438201904297,0
0.8052211761474609,0.4988262176513671,0
0.8052749633789062,0.4990013122558594,0
0.8054740905761718,0.4990213394165039,0
0.8055227279663085,0.4991271972656250,0
0.8056560516357422,0.4990242004394531,0
0.8055261611938477,0.4993263244628906,0
0.8058408737182617,0.4994098663330078,0
0.8057464599609375,0.4994756698608398,0
0.8056697845458984,0.4996124267578125,0
0.8058769226074218,0.4996124267578125,0
0.8060016632080078,0.4995889663696289,0
0.8060016632080078,0.4996953964233398,0
0.8058351516723633,0.4998046875000000,0
0.8059129714965820,0.4999139785766601,0
0.8060989379882812,0.4999362945556640,0
0.8063123703002929,0.4999197006225586,0
0.8060743331909179,0.5001062393188477,0
0.8065109252929688,0.5000730514526367,0
0.8063146591186523,0.5003482818603515,0
0.8063203811645507,0.5002321243286133,0
0.8063203811645507,0.5003042221069336,0
0.8064914703369140,0.5004335403442383,0
0.8065549850463867,0.5004655838012695,0
0.8065275192260742,0.5005828857421875,0
0.8069635391235351,0.5006446838378906,0
0.8069635391235351,0.5005754470825196,0
0.8067026138305664,0.5006252288818359,0
0.8064960479736328,0.5004489898681640,0
0.8063964843750000,0.5001228332519531,0
0.8059370040893554,0.5001834869384766,0
0.8053230285644531,0.4993120193481445,0
0.8044527053833007,0.4976806640625000,0
0.8038112640380859,0.4977121353149414,0
0.8025203704833984,0.4965356826782226,0
0.8024951934814453,0.4958793640136718,0
0.8017066955566406,0.4947870254516601,0
0.8011487960815430,0.4942646026611328,0
0.8003025054931641,0.4934967041015625,0
0.8000312805175781,0.4935390472412109,0
0.7999740600585937,0.4929119110107422,0
0.7998390197753906,0.4928066253662109,0
0.7995311737060546,0.4927471160888672,0
0.7996633529663085,0.4928827285766602,0
0.7998006820678710,0.4929416656494141,0
0.7998498916625977,0.4928976058959961,0
0.7999786376953125,0.4933187484741210,0
0.8007041931152343,0.4935653686523437,0
0.8006469726562500,0.4938114166259766,0
0.8008483886718750,0.4942600250244140,0
0.8014995574951171,0.4945346832275390,0
0.8015081405639648,0.4947807312011718,0
0.8016139984130859,0.4951131820678711,0
0.8017347335815429,0.4955835342407227,0
0.8023773193359375,0.4955835342407227,0
0.8024082183837891,0.4958415985107422,0
0.8024854660034180,0.4958415985107422,0
0.8026107788085938,0.4963365554809570,0
0.8027681350708008,0.4963365554809570,0
0.8031978607177734,0.4967365264892578,0
0.8031641006469726,0.4967365264892578,0
0.8032064437866211,0.4969167709350586,0
0.8035737991333007,0.4969167709350586,0
0.8035806655883789,0.4973373413085938,0
0.8037666320800781,0.4973373413085938,0
0.8037563323974609,0.4974231719970703,0
0.8038146972656249,0.4974231719970703,0
0.8039028167724609,0.4977848052978515,0
0.8038793563842773,0.4977848052978515,0
0.8041849136352539,0.4978580474853516,0
0.8040063858032226,0.4978580474853516,0
0.8040304183959961,0.4978466033935547,0
0.8041728973388672,0.4978466033935547,0
0.8040784835815430,0.4979284286499023,0
0.8041940689086914,0.4979284286499023,0
0.8041065216064452,0.4978391647338867,0
0.8040790557861328,0.4978391647338867,0
0.8039794921875000,0.4978849411010742,0
0.8039588928222656,0.4978849411010742,0
0.8040819168090820,0.4977430343627929,0
0.8039096832275391,0.4977430343627929,0
0.8038730621337891,0.4976297378540039,0
0.8040132522583008,0.4976297378540039,0
0.8039131164550781,0.4976680755615234,0
0.8039463043212890,0.4976680755615234,0
0.8038295745849610,0.4975479125976562,0
0.8037900924682617,0.4975479125976562,0
0.8037191390991211,0.4976291656494141,0
0.8035154342651367,0.4976291656494141,0
0.8038639068603516,0.4976194381713867,0
0.8036951065063477,0.4976194381713867,0
0.8037059783935546,0.4976028442382812,0
0.8038730621337891,0.4976028442382812,0
0.8038473129272461,0.4977075576782226,0
0.8040000915527343,0.4977075576782226,0
0.8039062499999999,0.4977510452270508,0
0.8038988113403320,0.4977510452270508,0
0.8039531707763672,0.4979827880859375,0
0.8039857864379882,0.4979827880859375,0
0.8043148040771484,0.4981693267822265,0
0.8040773391723632,0.4981693267822265,0
0.8041173934936523,0.4981756210327148,0
0.8042913436889648,0.4981756210327148,0
0.8043107986450195,0.4983581542968750,0
0.8045265197753906,0.4983581542968750,0
0.8043846130371094,0.4984170913696289,0
0.8044109344482422,0.4984170913696289,0
0.8043886184692383,0.4987352371215820,0
0.8044589996337891,0.4987352371215820,0
0.8047193527221680,0.4988719940185546,0
0.8045740127563477,0.4988719940185546,0
0.8046815872192382,0.4988691329956054,0
0.8048612594604492,0.4988691329956054,0
0.8047685623168945,0.4990390777587890,0
0.8050071716308593,0.4990390777587890,0
0.8049104690551757,0.4990550994873046,0
0.8049591064453124,0.4990550994873046,0
0.8049385070800781,0.4994384765625000,0
0.8050220489501952,0.4994384765625000,0
0.8052560806274414,0.4995042800903320,0
0.8052349090576172,0.4994642257690429,0
0.8052846908569335,0.4997257232666015,0
0.8054311752319335,0.4997554779052734,0
0.8054958343505859,0.4997097015380859,0
0.8055353164672852,0.4998744964599609,0
0.8055004119873047,0.4998744964599609,0
0.8054700851440429,0.5000284194946288,0
0.8057922363281250,0.5000284194946288,0
0.8056491851806641,0.4999225616455078,0
0.8055570602416992,0.4999225616455078,0
0.8056068420410156,0.5002990722656250,0
0.8057126998901367,0.5002990722656250,0
0.8059776306152343,0.5001909255981445,0
0.8058345794677734,0.5001909255981445,0
0.8057825088500976,0.5003431320190429,0
0.8058345794677734,0.5003431320190429,0
0.8058277130126953,0.5004667282104492,0
0.8061904907226562,0.5004667282104492,0
0.8060834884643554,0.5004678726196289,0
0.8059776306152343,0.5004678726196289,0
0.8060068130493164,0.5008295059204101,0
0.8060337066650390,0.5008295059204101,0
0.8064376831054687,0.5008008956909179,0
0.8064022064208984,0.5008008956909179,0
0.8063507080078125,0.5009485244750976,0
0.8063426971435547,0.5009485244750976,0
0.8064033508300781,0.5010824203491211,0
0.8066030502319336,0.5010824203491211,0
0.8064296722412109,0.5009256362915039,0
0.8062614440917969,0.5009256362915039,0
0.8061452865600586,0.5010526657104492,0
0.8060520172119140,0.5010526657104492,0
0.8061573028564453,0.5004203796386718,0
0.8058168411254882,0.5004203796386718,0
0.8053991317749023,0.4996501922607421,0
0.8048080444335938,0.4996501922607421,0
0.8043537139892578,0.4987157821655273,0
0.8039960861206055,0.4987157821655273,0
0.8033506393432617,0.4973093032836914,0
0.8026639938354492,0.4973093032836914,0
0.8020746231079101,0.4961935043334961,0
0.8015218734741211,0.4961935043334961,0
0.8012884140014648,0.4949157714843750,0
0.8007270812988281,0.4949157714843750,0
0.8002384185791015,0.4939704895019531,0
0.7998132705688477,0.4939704895019531,0
0.7994922637939453,0.4933776855468750,0
0.7994104385375976,0.4933776855468750,0
0.7991071701049804,0.4926069259643555,0
0.7988754272460937,0.4926069259643555,0
0.7988176345825195,0.4927762985229492,0
0.7988124847412109,0.4927762985229492,0
0.7990940093994140,0.4925725936889648,0
0.7990985870361328,0.4925725936889648,0
0.7990442276000976,0.4928844451904297,0
0.7991500854492187,0.4928844451904297,0
0.7992662429809571,0.4931762695312500,0
0.7996084213256835,0.4931762695312500,0
0.7996496200561524,0.4933971405029297,0
0.7996810913085938,0.4933971405029297,0
0.7999626159667969,0.4941267013549804,0
0.8001251220703125,0.4941267013549804,0
0.8005319595336914,0.4943321228027344,0
0.8006744384765625,0.4943321228027344,0
0.8007637023925781,0.4947990417480468,0
0.8008541107177735,0.4947990417480468,0
0.8009799957275391,0.4952362060546875,0
0.8014154434204102,0.4952362060546875,0
0.8013811111450195,0.4954101562500000,0
0.8014743804931640,0.4954101562500000,0
0.8016237258911133,0.4960676193237304,0
0.8017988204956055,0.4960676193237304,0
0.8022188186645508,0.4962490081787109,0
0.8022954940795898,0.4962490081787109,0
0.8023160934448242,0.4966907501220703,0
0.8023401260375976,0.4966907501220703,0
0.8024425506591797,0.4970077514648437,0
0.8028614044189453,0.4970077514648437,0
0.8028470993041992,0.4970466613769531,0
0.8028402328491211,0.4970466613769531,0
0.8029615402221679,0.4975879669189453,0
0.8030857086181641,0.4975879669189453,0
0.8032041549682617,0.4975204467773438,0
0.8032058715820313,0.4975204467773438,0
0.8032001495361328,0.4976646423339843,0
0.8031812667846679,0.4976646423339843,0
0.8031389236450195,0.4977396011352539,0
0.8032733917236328,0.4977396011352539,0
0.8031635284423828,0.4975055694580078,0
0.8030817031860351,0.4975055694580078,0
0.8030822753906249,0.4977293014526367,0
0.8030570983886719,0.4977293014526367,0
0.8031663894653320,0.4974729537963867,0
0.8030668258666992,0.4974729537963867,0
0.8030284881591797,0.4974472045898437,0
0.8028940200805664,0.4974472045898437,0
0.8028104782104492,0.4974008560180664,0
0.8029232025146484,0.4974008560180664,0
0.8028305053710937,0.4971771240234375,0
0.8028030395507812,0.4971771240234375,0
0.8028396606445313,0.4974946975708008,0
0.8027933120727538,0.4974946975708008,0
0.8028911590576172,0.4972892761230469,0
0.8029294967651367,0.4972892761230469,0
0.8029312133789063,0.4973608016967773,0
0.8028596878051758,0.4973608016967773,0
0.8029289245605469,0.4975450515747070,0
0.8031858444213867,0.4975450515747070,0
0.8030696868896484,0.4974803924560547,0
0.8029747009277344,0.4974803924560547,0
0.8030788421630859,0.4979312896728516,0
0.8031286239624024,0.4979312896728516,0
0.8033254623413085,0.4978162765502929,0
0.8033248901367187,0.4978162765502929,0
0.8034267425537109,0.4980136871337890,0
0.8034084320068359,0.4980136871337890,0
0.8034650802612304,0.4982419967651367,0
0.8035966873168945,0.4982419967651367,0
0.8035760879516601,0.4982219696044922,0
0.8036178588867188,0.4982219696044922,0
0.8037523269653321,0.4986963272094727,0
0.8037477493286133,0.4986963272094727,0
0.8038959503173828,0.4986116409301757,0
0.8039880752563476,0.4986116409301757,0
0.8040407180786132,0.4988113403320312,0
0.8040424346923828,0.4988113403320312,0
0.8041385650634766,0.4989761352539062,0
0.8042976379394531,0.4989761352539062,0
0.8043605804443359,0.4990636825561523,0
0.8043605804443359,0.4991701126098633,0
0.8045351028442382,0.4994625091552734,0
0.8044424057006836,0.4992868423461914,0
0.8044424057006836,0.4993692398071289,0
0.8044853210449219,0.4993646621704101,0
0.8046009063720703,0.4993646621704101,0
0.8046529769897460,0.4999059677124023,0
0.8045431137084961,0.4999059677124023,0
0.8047805786132812,0.4997365951538086,0
0.8047193527221680,0.4997365951538086,0
0.8047880172729492,0.4998247146606445,0
0.8050174713134766,0.4998247146606445,0
0.8049316406250000,0.4999877929687500,0
0.8049928665161132,0.4999877929687500,0
0.8049339294433594,0.4999460220336914,0
0.8050563812255859,0.4999460220336914,0
0.8050701141357421,0.5004707336425781,0
0.8050540924072266,0.5004707336425781,0
0.8051639556884765,0.5003528594970703,0
0.8050781250000000,0.5003528594970703,0
0.8052869796752929,0.5004581451416016,0
0.8054180145263672,0.5004581451416016,0
0.8053802490234375,0.5005851745605469,0
0.8054414749145508,0.5005851745605469,0
0.8053739547729492,0.5005090713500976,0
0.8055181503295898,0.5005090713500976,0
0.8055501937866211,0.5010543823242187,0
0.8054769515991210,0.5010543823242187,0
0.8056497573852539,0.5009576797485351,0
0.8055307388305664,0.5009576797485351,0
0.8057556152343750,0.5009611129760742,0
0.8058797836303710,0.5009611129760742,0
0.8058443069458008,0.5010320663452148,0
0.8058139801025390,0.5010320663452148,0
0.8055507659912109,0.5007602691650390,0
0.8055290222167969,0.5007602691650390,0
0.8052949905395508,0.5007722854614257,0
0.8049304962158202,0.5007722854614257,0
0.8045087814331054,0.4997005462646484,0
0.8038810729980469,0.4997005462646484,0
0.8036602020263671,0.4984600067138671,0
0.8031641006469726,0.4984600067138671,0
0.8024471282958984,0.4970912933349609,0
0.8017639160156250,0.4970912933349609,0
0.8009805679321289,0.4955371856689453,0
0.8005039215087890,0.4955371856689453,0
0.7999511718750000,0.4945833206176757,0
0.7993274688720703,0.4945833206176757,0
0.7989023208618163,0.4931842803955078,0
0.7983484268188477,0.4931842803955078,0
0.7981378555297851,0.4923271179199218,0
0.7979753494262695,0.4923271179199218,0
0.7976720809936523,0.4919076919555664,0
0.7974952697753906,0.4919076919555664,0
0.7973190307617187,0.4915340423583984,0
0.7973402023315429,0.4915340423583984,0
0.7973711013793945,0.4919345855712891,0
0.7973270416259766,0.4919345855712891,0
0.7974552154541016,0.4918739318847656,0
0.7974472045898438,0.4918739318847656,0
0.7978094100952148,0.4921886444091796,0
0.7980646133422852,0.4921886444091796,0
0.7981143951416015,0.4925811767578125,0
0.7983278274536133,0.4925811767578125,0
0.7983415603637695,0.4928604125976562,0
0.7986293792724609,0.4928604125976562,0
0.7988279342651367,0.4936454772949219,0
0.7988645553588867,0.4936454772949219,0
0.7990751266479492,0.4938297271728516,0
0.7990928649902344,0.4938297271728516,0
0.7995283126831054,0.4941307067871094,0
0.7998910903930664,0.4941307067871094,0
0.7999351501464843,0.4945466995239258,0
0.7999322891235351,0.4945466995239258,0
0.8000444412231446,0.4947000503540039,0
0.8003580093383789,0.4947000503540039,0
0.8004661560058594,0.4954673767089843,0
0.8005577087402344,0.4954673767089843,0
0.8006383895874023,0.4955257415771484,0
0.8007230758666992,0.4955257415771484,0
0.8010955810546875,0.4957912445068359,0
0.8012786865234375,0.4957912445068359,0
0.8012660980224610,0.4962146759033203,0
0.8014251708984375,0.4962146759033203,0
0.8013816833496094,0.4963371276855468,0
0.8015750885009766,0.4963371276855468,0
0.8016059875488281,0.4968406677246093,0
0.8016328811645508,0.4968406677246093,0
0.8015659332275390,0.4966941833496094,0
0.8015504837036133,0.4966941833496094,0
0.8018268585205078,0.4966615676879882,0
0.8018898010253906,0.4966615676879882,0
0.8017862319946288,0.4967433929443359,0
0.8016506195068359,0.4967433929443359,0
0.8016740798950195,0.4965814590454101,0
0.8017347335815429,0.4965814590454101,0
0.8016494750976563,0.4968652725219727,0
0.8015430450439452,0.4968652725219727,0
0.8014411926269531,0.4964836120605469,0
0.8013496398925781,0.4964836120605469,0
0.8015768051147460,0.4964887619018554,0
0.8016506195068359,0.4964887619018554,0
0.8015190124511719,0.4964944839477539,0
0.8014097213745117,0.4964944839477539,0
0.8014354705810547,0.4963657379150390,0
0.8015253067016601,0.4963657379150390,0
0.8014520645141602,0.4967216491699218,0
0.8013639450073242,0.4967216491699218,0
0.8014434814453125,0.4965448379516602,0
0.8013015747070312,0.4965448379516602,0
0.8015853881835937,0.4965642929077148,0
0.8017530441284180,0.4965642929077148,0
0.8016105651855469,0.4967473983764648,0
0.8016197204589843,0.4967473983764648,0
0.8015985488891602,0.4967285156250000,0
0.8017805099487304,0.4967285156250000,0
0.8018131256103516,0.4972108840942382,0
0.8018262863159179,0.4972108840942382,0
0.8018337249755859,0.4971759796142578,0
0.8018520355224609,0.4971759796142578,0
0.8021169662475586,0.4972515106201172,0
0.8022445678710938,0.4972515106201172,0
0.8022159576416016,0.4974723815917969,0
0.8022142410278320,0.4974723815917969,0
0.8023080825805664,0.4975427627563476,0
0.8024740219116211,0.4975427627563476,0
0.8024637222290039,0.4981052398681640,0
0.8024677276611328,0.4981052398681640,0
0.8025678634643555,0.4981115341186523,0
0.8025695800781250,0.4981115341186523,0
0.8029037475585937,0.4981842041015625,0
0.8030662536621094,0.4981842041015625,0
0.8029872894287109,0.4984462738037109,0
0.8030113220214844,0.4984462738037109,0
0.8030187606811523,0.4984794616699219,0
0.8032630920410156,0.4984794616699219,0
0.8032968521118163,0.4989675521850586,0
0.8031961441040039,0.4989675521850586,0
0.8032024383544921,0.4989166259765625,0
0.8031715393066406,0.4989166259765625,0
0.8035263061523438,0.4990293502807617,0
0.8036664962768555,0.4990293502807617,0
0.8036218643188476,0.4992210388183593,0
0.8035852432250976,0.4992210388183593,0
0.8036018371582031,0.4991849899291992,0
0.8037511825561523,0.4991849899291992,0
0.8038244247436523,0.4996696472167969,0
0.8038129806518555,0.4996696472167969,0
0.8036922454833985,0.4995712280273437,0
0.8036670684814453,0.4995712280273437,0
0.8041454315185547,0.4996284484863281,0
0.8041734695434570,0.4996284484863281,0
0.8040670394897461,0.4998401641845703,0
0.8040870666503906,0.4998401641845703,0
0.8040264129638671,0.4998470306396484,0
0.8043285369873047,0.4998470306396484,0
0.8042964935302734,0.5002893447875977,0
0.8043416976928711,0.5002893447875977,0
0.8042495727539062,0.5002017974853515,0
0.8042701721191406,0.5002017974853515,0
0.8045688629150390,0.5002613067626953,0
0.8047285079956055,0.5002613067626953,0
0.8046375274658203,0.5005084991455078,0
0.8046375274658203,0.5005084991455078,0
0.8046701431274413,0.5004764556884765,0
0.8047966003417969,0.5004764556884765,0
0.8047044754028320,0.5008186340332031,0
0.8046077728271485,0.5008186340332031,0
0.8044549942016601,0.5005342483520507,0
0.8045459747314453,0.5003894805908203,0
0.8041311264038086,0.4999706268310546,0
0.8036767959594726,0.4999706268310546,0
0.8031475067138671,0.4988788604736328,0
0.8026376724243164,0.4988788604736328,0
0.8023767471313477,0.4976818084716796,0
0.8015298843383789,0.4976818084716796,0
0.8008747100830078,0.4960515975952148,0
0.8002847671508789,0.4960515975952148,0
0.7996273040771484,0.4945278167724609,0
0.7989675521850585,0.4945278167724609,0
0.7984165191650391,0.4933588027954101,0
0.7978906631469727,0.4933588027954101,0
0.7972726821899414,0.4921571731567382,0
0.7968080520629882,0.4921571731567382,0
0.7966924667358398,0.4914699554443359,0
0.7962730407714843,0.4914699554443359,0
0.7961162567138672,0.4910442352294921,0
0.7961139678955078,0.4910442352294921,0
0.7959651947021484,0.4909063339233398,0
0.7960905075073242,0.4909063339233398,0
0.7961156845092773,0.4910797119140625,0
0.7962043762207031,0.4910797119140625,0
0.7961442947387695,0.4911855697631836,0
0.7963108062744141,0.4911855697631836,0
0.7967124938964844,0.4916639328002930,0
0.7967399597167969,0.4916639328002930,0
0.7968515396118164,0.4920038223266601,0
0.7971845626831054,0.4920038223266601,0
0.7973024368286132,0.4924415588378906,0
0.7974443435668945,0.4924415588378906,0
0.7976720809936523,0.4929124832153320,0
0.7978546142578125,0.4929124832153320,0
0.7978763580322266,0.4932203292846680,0
0.7980297088623046,0.4932203292846680,0
0.7984594345092774,0.4936677932739257,0
0.7984256744384766,0.4936677932739257,0
0.7985710144042969,0.4939607620239257,0
0.7989463806152344,0.4939607620239257,0
0.7989583969116211,0.4943063735961914,0
0.7991718292236328,0.4943063735961914,0
0.7993709564208984,0.4946931838989257,0
0.7994522094726563,0.4946931838989257,0
0.7994813919067383,0.4950050354003906,0
0.7996049880981445,0.4950050354003906,0
0.7999574661254882,0.4953958511352539,0
0.7999711990356445,0.4953958511352539,0
0.8000484466552734,0.4955686569213867,0
0.8003334045410156,0.4955686569213867,0
0.8003356933593749,0.4958290100097656,0
0.8003986358642577,0.4958290100097656,0
0.8004478454589844,0.4960086822509766,0
0.8004598617553711,0.4960086822509766,0
0.8002927780151367,0.4960447311401367,0
0.8004060745239258,0.4960447311401367,0
0.8006206512451172,0.4961133956909179,0
0.8004993438720703,0.4961133956909179,0
0.8004318237304687,0.4960527420043945,0
0.8005136489868164,0.4960527420043945,0
0.8004369735717773,0.4961168289184570,0
0.8006458282470703,0.4959909439086914,0
0.8004055023193359,0.4958965301513671,0
0.8003196716308594,0.4959960937500000,0
0.8003196716308594,0.4959589004516601,0
0.8003814697265624,0.4960121154785156,0
0.8001039505004882,0.4959514617919922,0
0.8003065109252929,0.4959526062011719,0
0.8003803253173828,0.4960721969604492,0
0.8002990722656250,0.4959348678588867,0
0.8001428604125976,0.4959663391113281,0
0.8002058029174804,0.4961265563964843,0
0.8003173828125000,0.4961706161499023,0
0.8002498626708984,0.4962392807006836,0
0.8003047943115235,0.4962673187255859,0
0.8007671356201171,0.4963502883911133,0
0.8007270812988281,0.4965648651123047,0
0.8006166458129883,0.4966552734375000,0
0.8010818481445312,0.4968069076538086,0
0.8009679794311523,0.4970958709716797,0
0.8012117385864258,0.4970163345336914,0
0.8014217376708984,0.4972320556640625,0
0.8015762329101562,0.4972543716430664,0
0.8014492034912110,0.4975164413452148,0
0.8015230178833007,0.4978734970092773,0
0.8018102645874023,0.4976835250854492,0
0.8016483306884765,0.4979787826538086,0
0.8017198562622070,0.4981498718261719,0
0.8019155502319336,0.4981595993041992,0
0.8020591735839844,0.4984273910522461,0
0.8020809173583984,0.4984222412109375,0
0.8019836425781249,0.4984657287597656,0
0.8025186538696288,0.4986545562744140,0
0.8023618698120117,0.4987472534179687,0
0.8023744583129883,0.4988822937011719,0
0.8028327941894531,0.4989486694335937,0
0.8028064727783203,0.4989337921142578,0
0.8026920318603515,0.4991523742675781,0
0.8026090621948242,0.4991518020629883,0
0.8028556823730468,0.4993206024169922,0
0.8028785705566406,0.4993440628051757,0
0.8028505325317382,0.4994344711303711,0
0.8032396316528320,0.4994573593139648,0
0.8033094406127930,0.4994682312011718,0
0.8031589508056640,0.4996324539184570,0
0.8030588150024414,0.4996736526489258,0
0.8033706665039062,0.4998121261596680,0
0.8032642364501953,0.4998716354370117,0
0.8034255981445312,0.4998058319091797,0
0.8036087036132812,0.5000392913818359,0
0.8037054061889648,0.5000530242919922,0
0.8035612106323242,0.5002458572387695,0
0.8035531997680664,0.5002458572387695,0
0.8038908004760742,0.5003688812255859,0
0.8038908004760742,0.5004398345947265,0
0.8037380218505860,0.5005027770996093,0
0.8036716461181640,0.5005788803100586,0
0.8040618896484375,0.5004518508911132,0
0.8037689208984374,0.5004518508911132,0
0.8032705307006835,0.5002527236938477,0
0.8032705307006835,0.5000484466552734,0
0.8028385162353515,0.4991941452026367,0
0.8021547317504882,0.4985675811767578,0
0.8008632659912109,0.4972738265991211,0
0.8003866195678710,0.4972738265991211,0
0.7991117477416992,0.4956447601318359,0
0.7983043670654296,0.4941844940185547,0
0.7976737976074219,0.4934331893920898,0
0.7967725753784179,0.4922698974609375,0
0.7961362838745117,0.4923740386962890,0
0.7956830978393554,0.4914230346679687,0
0.7954496383666992,0.4912427902221679,0
0.7954273223876953,0.4908096313476562,0
0.7951280593872070,0.4906419754028320,0
0.7951709747314453,0.4908073425292969,0
0.7955709457397461,0.4910190582275391,0
0.7955446243286133,0.4912187576293945,0
0.7956390380859375,0.4914442062377929,0
0.7957328796386719,0.4917566299438476,0
0.7965282440185547,0.4921485900878906,0
0.7966529846191406,0.4921234130859375,0
0.7968315124511719,0.4926172256469726,0
0.7967359542846679,0.4928998947143555,0
0.7974283218383789,0.4933290481567383,0
0.7974500656127930,0.4933290481567383,0
0.7976491928100585,0.4939561843872070,0
0.7978477478027344,0.4939893722534179,0
0.7984748840332031,0.4942256927490234,0
0.7983192443847656,0.4943990707397461,0
0.7985412597656250,0.4948797225952148,0
0.7986219406127929,0.4948797225952148,0
0.7990625381469726,0.4952156066894531,0
0.7990625381469726,0.4952819824218750,0
0.7991226196289062,0.4957237243652344,0
0.7994007110595703,0.4957551956176758,0
0.7995128631591797,0.4961168289184570,0
0.7995798110961914,0.4959325790405273,0
0.7995981216430664,0.4962003707885742,0
0.7998327255249024,0.4962301254272461,0
0.7997480392456054,0.4962158203125000,0
0.7996393203735351,0.4962564468383789,0
0.7996313095092773,0.4962970733642578,0
0.7996742248535156,0.4961259841918945,0
0.7996742248535156,0.4960802078247070,0
0.7995706558227539,0.4961448669433594,0
0.7995220184326172,0.4962352752685547,0
0.7994516372680663,0.4959011077880859,0
0.7993761062622070,0.4959011077880859,0
0.7994138717651367,0.4960206985473632,0
0.7994138717651367,0.4959302902221679,0
0.7994207382202149,0.4958278656005859,0
0.7993131637573242,0.4958902359008789,0
0.7993377685546875,0.4959606170654297,0
0.7995792388916015,0.4960264205932617,0
0.7994710922241210,0.4959823608398437,0
0.7994161605834961,0.4963079452514648,0
0.7996204376220702,0.4962501525878906,0
0.7997617721557617,0.4964756011962890,0
0.7998058319091796,0.4963033676147461,0
0.7998086929321289,0.4967182159423828,0
0.7998493194580077,0.4967279434204102,0
0.8000942230224609,0.4967256546020508,0
0.8001640319824218,0.4968292236328125,0
0.8003791809082031,0.4971004486083984,0
0.8005662918090820,0.4971467971801757,0
0.8005634307861328,0.4971719741821289,0
0.8005800247192383,0.4973899841308593,0
0.8005851745605469,0.4976148605346680,0
0.8008752822875976,0.4976148605346680,0
0.8008083343505860,0.4975931167602539,0
0.8008426666259766,0.4980154037475586,0
0.8010131835937500,0.4980091094970703,0
0.8011207580566406,0.4982563018798828,0
0.8011762619018554,0.4980016708374023,0
0.8012094497680664,0.4984714508056640,0
0.8011997222900390,0.4983919143676758,0
0.8014514923095702,0.4984434127807617,0
0.8015012741088867,0.4987838745117187,0
0.8015665054321289,0.4988376617431640,0
0.8018348693847656,0.4988061904907226,0
0.8017164230346679,0.4988325119018555,0
0.8019046783447266,0.4992525100708007,0
0.8018451690673828,0.4992525100708007,0
0.8019613265991211,0.4992994308471679,0
0.8019613265991211,0.4991758346557617,0
0.8021295547485351,0.4995712280273437,0
0.8022394180297852,0.4995214462280273,0
0.8022657394409179,0.4997463226318359,0
0.8022863388061523,0.4997743606567382,0
0.8022960662841797,0.4998819351196289,0
0.8024368286132812,0.4998659133911132,0
0.8023595809936523,0.4997674942016601,0
0.8024837493896484,0.5001382827758789,0
0.8028591156005859,0.5000370025634765,0
0.8027910232543946,0.5000370025634765,0
0.8027807235717773,0.5002618789672851,0
0.8027555465698242,0.5002618789672851,0
0.8027709960937500,0.5003002166748046,0
0.8030250549316406,0.5003002166748046,0
0.8028636932373047,0.5002561569213867,0
0.8027303695678710,0.5002561569213867,0
0.8028591156005859,0.5006246566772461,0
0.8028654098510742,0.5006246566772461,0
0.8030891418457031,0.5004518508911132,0
0.8031269073486328,0.5004518508911132,0
0.8030519485473633,0.5006212234497071,0
0.8030771255493164,0.5006212234497071,0
0.8030857086181641,0.5008129119873047,0
0.8032991409301757,0.5008129119873047,0
0.8031938552856445,0.5007173538208007,0
0.8032052993774413,0.5007442474365235,0
0.8032361984252929,0.5011350631713867,0
0.8033655166625976,0.5011350631713867,0
0.8035720825195313,0.5009948730468750,0
0.8035320281982422,0.5009948730468750,0
0.8035434722900391,0.5011299133300781,0
0.8035182952880859,0.5011299133300781,0
0.8035154342651367,0.5013055801391602,0
0.8037849426269531,0.5013055801391602,0
0.8036378860473633,0.5011940002441406,0
0.8035531997680664,0.5011940002441406,0
0.8035051345825195,0.5012157440185546,0
0.8035257339477538,0.5012157440185546,0
0.8027910232543946,0.5005851745605469,0
0.8028413772583007,0.5000604629516602,0
0.8018205642700195,0.5000604629516602,0
0.8014457702636718,0.4986356735229492,0
0.8006080627441406,0.4986356735229492,0
0.8000295639038085,0.4970787048339844,0
0.7995391845703125,0.4970787048339844,0
0.7987775802612305,0.4956052780151367,0
0.7980754852294921,0.4956052780151367,0
0.7974042892456055,0.4940998077392578,0
0.7968481063842773,0.4940998077392578,0
0.7964195251464844,0.4932683944702148,0
0.7959560394287110,0.4932683944702148,0
0.7956790924072266,0.4923305511474609,0
0.7952659606933593,0.4923305511474609,0
0.7950908660888671,0.4918069839477539,0
0.7951108932495117,0.4918069839477539,0
0.7950365066528320,0.4916296005249023,0
0.7950616836547851,0.4916296005249023,0
0.7949312210083007,0.4916078567504882,0
0.7951097488403320,0.4916078567504882,0
0.7951572418212890,0.4921915054321289,0
0.7952676773071289,0.4921915054321289,0
0.7955160140991211,0.4924724578857422,0
0.7956150054931640,0.4924724578857422,0
0.7958330154418946,0.4928403854370117,0
0.7961917877197265,0.4928403854370117,0
0.7963565826416016,0.4933542251586914,0
0.7965248107910156,0.4933542251586914,0
0.7966358184814453,0.4936981201171875,0
0.7968818664550781,0.4936981201171875,0
0.7970935821533203,0.4944803237915039,0
0.7972126007080078,0.4944803237915039,0
0.7974563598632812,0.4946720123291015,0
0.7974895477294922,0.4946720123291015,0
0.7977447509765625,0.4949890136718750,0
0.7980863571166992,0.4949890136718750,0
0.7981756210327148,0.4954936981201172,0
0.7983444213867187,0.4954936981201172,0
0.7983747482299804,0.4957477569580078,0
0.7986351013183594,0.4957477569580078,0
0.7987890243530273,0.4965070724487304,0
0.7988576889038086,0.4965070724487304,0
0.7991226196289062,0.4965682983398437,0
0.7991895675659180,0.4965682983398437,0
0.7994436264038086,0.4969018936157226,0
0.7998985290527344,0.4969018936157226,0
0.8000867843627929,0.4973836898803711,0
0.8002378463745117,0.4973836898803711,0
0.8001125335693359,0.4973630905151367,0
0.8003065109252929,0.4973630905151367,0
0.8005205154418945,0.4979175567626953,0
0.8005102157592773,0.4979175567626953,0
0.8006658554077148,0.4978523254394531,0
0.8005542755126953,0.4978523254394531,0
0.8007259368896484,0.4978054046630859,0
0.8008335113525390,0.4978054046630859,0
0.8008134841918945,0.4979198455810547,0
0.8007843017578125,0.4979198455810547,0
0.8006011962890625,0.4977499008178711,0
0.8006864547729492,0.4977499008178711,0
0.8006801605224609,0.4980857849121094,0
0.8004667282104492,0.4980857849121094,0
0.8004066467285156,0.4977928161621094,0
0.8002647399902344,0.4977928161621094,0
0.8005628585815430,0.4977687835693359,0
0.8007528305053710,0.4977687835693359,0
0.8007299423217773,0.4978895187377930,0
0.8006807327270508,0.4978895187377930,0
0.8006732940673827,0.4978071212768554,0
0.8007745742797852,0.4978071212768554,0
0.8008769989013672,0.4983049392700195,0
0.8008398056030274,0.4983049392700195,0
0.8009416580200195,0.4981973648071289,0
0.8008638381958008,0.4981973648071289,0
0.8010383605957031,0.4982980728149414,0
0.8013216018676758,0.4982980728149414,0
0.8012695312500000,0.4985149383544922,0
0.8012489318847656,0.4985149383544922,0
0.8012386322021484,0.4984617233276367,0
0.8013765335083007,0.4984617233276367,0
0.8014972686767577,0.4990253448486328,0
0.8015098571777344,0.4990253448486328,0
0.8014926910400391,0.4990064620971679,0
0.8014286041259765,0.4990064620971679,0
0.8016757965087891,0.4991392135620117,0
0.8019567489624023,0.4991392135620117,0
0.8019504547119141,0.4994012832641601,0
0.8020248413085938,0.4994012832641601,0
0.8020849227905273,0.4994573593139648,0
0.8022743225097656,0.4994573593139648,0
0.8022880554199219,0.5000684738159179,0
0.8022760391235352,0.5000684738159179,0
0.8022800445556640,0.5000106811523437,0
0.8022445678710938,0.5000106811523437,0
0.8024471282958984,0.5001514434814452,0
0.8026113510131836,0.5001514434814452,0
0.8025918960571289,0.5003362655639648,0
0.8026285171508789,0.5003362655639648,0
0.8026885986328125,0.5003957748413086,0
0.8028945922851562,0.5003957748413086,0
0.8029003143310547,0.5009811401367187,0
0.8029844284057617,0.5009811401367187,0
0.8030084609985352,0.5008575439453125,0
0.8030256271362305,0.5008575439453125,0
0.8031417846679687,0.5009954452514648,0
0.8034427642822265,0.5009954452514648,0
0.8032327651977539,0.5011470794677734,0
0.8032905578613281,0.5011470794677734,0
0.8033569335937499,0.5011556625366210,0
0.8034112930297851,0.5011556625366210,0
0.8035182952880859,0.5017324447631836,0
0.8034696578979492,0.5017324447631836,0
0.8034444808959961,0.5015155792236328,0
0.8033769607543945,0.5015155792236328,0
0.8036865234375000,0.5016574859619141,0
