REDsignal,IRsignal,synced
0.8701240539550781,0.4211380004882813,0
0.8688405990600586,0.4211380004882813,0
0.8677682876586914,0.4192926406860352,0
0.8663898468017578,0.4192926406860352,0
0.8641387939453125,0.4156551361083984,0
0.8614826202392578,0.4156551361083984,0
0.8579990386962890,0.4098501205444336,0
0.8544645309448242,0.4098501205444336,0
0.8514078140258788,0.4054178237915039,0
0.8481267929077149,0.4054178237915039,0
0.8460891723632812,0.4002159118652344,0
0.8432544708251953,0.4002159118652344,0
0.8413644790649414,0.3970396041870117,0
0.8399248123168945,0.3970396041870117,0
0.8389314651489258,0.3954809188842773,0
0.8387197494506836,0.3954809188842773,0
0.8379867553710937,0.3944183349609375,0
0.8377367019653320,0.3944183349609375,0
0.8378797531127929,0.3953510284423828,0
0.8380285263061523,0.3953510284423828,0
0.8390447616577148,0.3954671859741211,0
0.8390407562255859,0.3954671859741211,0
0.8395917892456054,0.3961767196655273,0
0.8401960372924805,0.3961767196655273,0
0.8406063079833984,0.3972822189331054,0
0.8416940689086914,0.3972822189331054,0
0.8419097900390625,0.3978801727294922,0
0.8424470901489257,0.3978801727294922,0
0.8431858062744141,0.3998748779296875,0
0.8439096450805664,0.3998748779296875,0
0.8451593399047851,0.4006055831909179,0
0.8455970764160156,0.4006055831909179,0
0.8462339401245117,0.4017414093017578,0
0.8471443176269531,0.4017414093017578,0
0.8476552963256836,0.4031455993652344,0
0.8490056991577148,0.4031455993652344,0
0.8492334365844726,0.4039421081542969,0
0.8498256683349609,0.4039421081542969,0
0.8504482269287109,0.4059230804443359,0
0.8510896682739257,0.4059230804443359,0
0.8524297714233399,0.4064861297607422,0
0.8526374816894531,0.4064861297607422,0
0.8531118392944336,0.4074422836303711,0
0.8537630081176758,0.4074422836303711,0
0.8540542602539062,0.4083978652954102,0
0.8549594879150391,0.4083978652954102,0
0.8548427581787109,0.4085775375366211,0
0.8549863815307617,0.4085775375366211,0
0.8552398681640625,0.4097957611083984,0
0.8554704666137695,0.4097957611083984,0
0.8563671112060547,0.4097110748291016,0
0.8560953140258789,0.4097110748291016,0
0.8561840057373047,0.4100629806518555,0
0.8564826965332031,0.4100629806518555,0
0.8571104049682617,0.4106700897216797,0
0.8585363388061523,0.4116748809814453,0
0.8585363388061523,0.4112297058105469,0
0.8582811355590820,0.4120931625366211,0
0.8583343505859374,0.4120931625366211,0
0.8591966629028320,0.4118831634521484,0
0.8589162826538086,0.4118831634521484,0
0.8589036941528320,0.4121349334716797,0
0.8592447280883789,0.4121349334716797,0
0.8593465805053710,0.4125148773193359,0
0.8600006103515625,0.4125148773193359,0
0.8597728729248046,0.4125125885009766,0
0.8597934722900390,0.4125125885009766,0
0.8600189208984375,0.4135831832885742,0
0.8602191925048828,0.4135831832885742,0
0.8610694885253906,0.4134521484375000,0
0.8608743667602539,0.4134521484375000,0
0.8609401702880859,0.4137485504150391,0
0.8612606048583984,0.4137485504150391,0
0.8613401412963867,0.4142286300659180,0
0.8620016098022460,0.4142286300659180,0
0.8617607116699219,0.4142412185668945,0
0.8617967605590821,0.4142412185668945,0
0.8621017456054687,0.4153638839721679,0
0.8623323440551758,0.4153638839721679,0
0.8633045196533203,0.4153879165649414,0
0.8631483078002929,0.4153879165649414,0
0.8633199691772461,0.4158662796020507,0
0.8638229370117188,0.4158662796020507,0
0.8638692855834961,0.4164012908935547,0
0.8647047042846679,0.4164012908935547,0
0.8644649505615234,0.4164974212646484,0
0.8645914077758788,0.4164974212646484,0
0.8648832321166992,0.4176927566528320,0
0.8651950836181640,0.4176927566528320,0
0.8662485122680664,0.4178043365478515,0
0.8661243438720703,0.4178043365478515,0
0.8663309097290038,0.4182918548583984,0
0.8668035507202149,0.4182918548583984,0
0.8669849395751953,0.4189109802246094,0
0.8679141998291016,0.4189109802246094,0
0.8675828933715820,0.4190071105957031,0
0.8676389694213867,0.4190071105957031,0
0.8678855895996094,0.4201349258422851,0
0.8681465148925781,0.4201349258422851,0
0.8691535949707031,0.4200788497924804,0
0.8689012527465820,0.4200788497924804,0
0.8689441680908203,0.4204204559326172,0
0.8692783355712891,0.4204204559326172,0
0.8694293975830077,0.4209703445434570,0
0.8701818466186523,0.4209703445434570,0
0.8698476791381836,0.4209823608398438,0
0.8699043273925781,0.4209823608398438,0
0.8701389312744140,0.4220043182373047,0
0.8703037261962890,0.4220043182373047,0
0.8713439941406250,0.4220495223999023,0
0.8711454391479492,0.4220495223999023,0
0.8713199615478515,0.4224248886108398,0
0.8716432571411132,0.4224248886108398,0
0.8718206405639648,0.4229249954223633,0
0.8725381851196289,0.4229249954223633,0
0.8722446441650390,0.4229101181030273,0
0.8721708297729492,0.4229101181030273,0
0.8722875595092773,0.4237632751464844,0
0.8723665237426758,0.4237632751464844,0
0.8731012344360352,0.4234033584594726,0
0.8725765228271484,0.4234033584594726,0
0.8722377777099609,0.4231155395507812,0
0.8720575332641601,0.4231155395507812,0
0.8716043472290039,0.4227527618408203,0
0.8716707229614258,0.4227527618408203,0
0.8705835342407227,0.4213085174560547,0
0.8693252563476562,0.4213085174560547,0
0.8680412292480468,0.4195192337036133,0
0.8656551361083984,0.4195192337036133,0
0.8632467269897460,0.4136203765869140,0
0.8584699630737305,0.4136203765869140,0
0.8540439605712891,0.4061862945556641,0
0.8493947982788086,0.4061862945556641,0
0.8448886871337891,0.3986915588378906,0
0.8410148620605469,0.3986915588378906,0
0.8370506286621093,0.3923835754394531,0
0.8333890914916992,0.3923835754394531,0
0.8315471649169922,0.3895168304443359,0
0.8300994873046875,0.3895168304443359,0
0.8300491333007812,0.3875164031982422,0
0.8288852691650390,0.3875164031982422,0
0.8283256530761719,0.3867284774780274,0
0.8282123565673828,0.3867284774780274,0
0.8280921936035156,0.3868251800537109,0
0.8288812637329102,0.3868251800537109,0
0.8287496566772461,0.3870471954345703,0
0.8291072845458984,0.3870471954345703,0
0.8295541763305664,0.3883907318115234,0
0.8302499771118164,0.3883907318115234,0
0.8317199707031250,0.3893056869506836,0
0.8321542739868164,0.3893056869506836,0
0.8327201843261719,0.3905141830444336,0
0.8337129592895508,0.3905141830444336,0
0.8344573974609375,0.3920419692993164,0
0.8358570098876953,0.3920419692993164,0
0.8362169265747070,0.3931119918823242,0
0.8368841171264648,0.3931119918823242,0
0.8375782012939453,0.3949527740478516,0
0.8384244918823242,0.3949527740478516,0
0.8400615692138672,0.3959924697875977,0
0.8404615402221679,0.3959924697875977,0
0.8410509109497070,0.3972908020019531,0
0.8420219421386719,0.3972908020019531,0
0.8424819946289063,0.3987047195434570,0
0.8438673019409180,0.3987047195434570,0
0.8440326690673828,0.3996265411376953,0
0.8446357727050781,0.3996265411376953,0
0.8452228546142578,0.4013317108154297,0
0.8462053298950195,0.4016876220703125,0
0.8475774765014649,0.4024738311767578,0
0.8480667114257813,0.4024738311767578,0
0.8492042541503906,0.4038877487182617,0
0.8492042541503906,0.4041378021240234,0
0.8505386352539063,0.4046493530273437,0
0.8505867004394531,0.4051111221313476,0
0.8513957977294921,0.4059562683105469,0
0.8523159027099609,0.4059562683105469,0
0.8522460937499999,0.4061227798461914,0
0.8522460937499999,0.4065942764282227,0
0.8528045654296875,0.4070886611938476,0
0.8536222457885742,0.4070909500122070,0
0.8533658981323242,0.4071092605590820,0
0.8536920547485352,0.4073610305786133,0
0.8543758392333984,0.4076877593994140,0
0.8544633865356445,0.4077444076538086,0
0.8541584014892578,0.4080230712890625,0
0.8540628433227538,0.4083063125610352,0
0.8553800582885742,0.4085134506225586,0
0.8552335739135742,0.4085317611694336,0
0.8556249618530273,0.4089397430419922,0
0.8551998138427734,0.4094690322875976,0
0.8567745208740234,0.4096126556396484,0
0.8565931320190430,0.4096836090087890,0
0.8570898056030273,0.4101585388183593,0
0.8566555023193360,0.4107324600219727,0
0.8582645416259765,0.4110471725463867,0
0.8581335067749023,0.4115633010864257,0
0.8583389282226562,0.4118957519531250,0
0.8585844039916992,0.4120565414428711,0
0.8596315383911133,0.4122671127319336,0
0.8594890594482422,0.4124193191528320,0
0.8598026275634766,0.4132656097412109,0
0.8603662490844727,0.4135374069213867,0
0.8609172821044921,0.4139625549316406,0
0.8609407424926757,0.4136495590209961,0
0.8615055084228516,0.4144111633300781,0
0.8623952865600586,0.4144025802612304,0
0.8620571136474610,0.4145473480224609,0
0.8620244979858398,0.4153209686279297,0
0.8627065658569336,0.4155652999877930,0
0.8632804870605468,0.4160156250000000,0
0.8633005142211914,0.4157346725463867,0
0.8637107849121094,0.4164562225341797,0
0.8639986038208007,0.4165643692016601,0
0.8647132873535156,0.4168601989746094,0
0.8648397445678710,0.4169242858886719,0
0.8653867721557617,0.4178575515747070,0
0.8661489486694336,0.4176824569702148,0
0.8659172058105469,0.4179010391235352,0
0.8659973144531250,0.4181184768676758,0
0.8664625167846679,0.4185876846313477,0
0.8671434402465820,0.4185876846313477,0
0.8668962478637695,0.4186872482299804,0
0.8669305801391601,0.4187067031860351,0
0.8672710418701172,0.4195547103881836,0
0.8680143356323242,0.4193790435791016,0
0.8678747177124023,0.4196193695068359,0
0.8679685592651367,0.4197755813598633,0
0.8684417724609375,0.4204553604125976,0
0.8692646026611328,0.4202848434448242,0
0.8691341400146484,0.4205440521240234,0
0.8692090988159179,0.4206321716308594,0
0.8697732925415039,0.4215705871582031,0
0.8705463409423828,0.4214469909667969,0
0.8703666687011719,0.4217044830322266,0
0.8703643798828125,0.4217233657836914,0
0.8708925247192383,0.4225553512573242,0
0.8716363906860352,0.4223796844482422,0
0.8713674545288086,0.4225725173950195,0
0.8715551376342773,0.4225805282592773,0
0.8718973159790039,0.4231641769409180,0
0.8718973159790039,0.4232402801513672,0
0.8722898483276367,0.4234113693237305,0
0.8723299026489257,0.4232952117919922,0
0.8726869583129883,0.4240304946899414,0
0.8726869583129883,0.4238399505615234,0
0.8730291366577149,0.4239664077758789,0
0.8729650497436523,0.4239480972290039,0
0.8733066558837891,0.4246822357177734,0
0.8733066558837891,0.4245151519775390,0
0.8737695693969726,0.4247468948364257,0
0.8737644195556641,0.4247045516967773,0
0.8741769790649414,0.4254335403442382,0
0.8748825073242187,0.4252647399902343,0
0.8746255874633789,0.4254747390747070,0
0.8747343063354492,0.4254415512084961,0
0.8751108169555664,0.4262311935424805,0
0.8751108169555664,0.4260818481445313,0
0.8755382537841797,0.4264114379882812,0
0.8756469726562500,0.4263439178466797,0
0.8760246276855469,0.4270534515380859,0
0.8767278671264648,0.4269207000732422,0
0.8764909744262696,0.4272130966186523,0
0.8766477584838867,0.4272010803222656,0
0.8771564483642578,0.4280136108398437,0
0.8771564483642578,0.4278837203979492,0
0.8776771545410156,0.4281858444213867,0
0.8777618408203125,0.4281572341918945,0
0.8781291961669921,0.4288415908813477,0
0.8788467407226562,0.4286819458007812,0
0.8785514831542969,0.4289766311645508,0
0.8786001205444336,0.4288919448852539,0
0.8789062500000000,0.4292896270751953,0
0.8789062500000000,0.4293342590332031,0
0.8792964935302734,0.4295946121215820,0
0.8792415618896484,0.4294704437255859,0
0.8795156478881836,0.4301239013671875,0
0.8801336288452148,0.4299894332885742,0
0.8798732757568359,0.4301118850708008,0
0.8799407958984374,0.4300970077514648,0
0.8803287506103515,0.4305015563964844,0
0.8803287506103515,0.4306011199951172,0
0.8806777954101562,0.4308546066284180,0
0.8807018280029296,0.4308025360107422,0
0.8809759140014648,0.4313180923461914,0
0.8815235137939453,0.4311979293823242,0
0.8811264038085938,0.4311893463134766,0
0.8808488845825195,0.4308277130126953,0
0.8803705215454102,0.4306486129760742,0
0.8803705215454102,0.4305450439453125,0
0.8783700942993163,0.4296323776245117,0
0.8784805297851562,0.4286235809326172,0
0.8761653900146484,0.4267089843750000,0
0.8746770858764649,0.4266077041625976,0
0.8713806152343749,0.4213256835937500,0
0.8668642044067383,0.4166982650756836,0
0.8561050415039062,0.4078594207763672,0
0.8561050415039062,0.4079315185546875,0
0.8454511642456054,0.3992248535156250,0
0.8405639648437500,0.3953481674194336,0
0.8341587066650390,0.3911567687988281,0
0.8323591232299804,0.3911127090454101,0
0.8307266235351562,0.3886104583740234,0
0.8295873641967774,0.3876874923706055,0
0.8285196304321288,0.3872343063354492,0
0.8287565231323242,0.3871009826660156,0
0.8284486770629883,0.3872016906738281,0
0.8285127639770508,0.3872125625610351,0
0.8292720794677734,0.3879827499389648,0
0.8302173614501953,0.3878076553344726,0
0.8305509567260742,0.3888662338256836,0
0.8309589385986328,0.3889017105102539,0
0.8314556121826172,0.3904867172241211,0
0.8338691711425781,0.3920911788940429,0
0.8367942810058594,0.3935995101928711,0
0.8375181198120117,0.3945705413818359,0
0.8379089355468750,0.3949687957763672,0
0.8392919540405274,0.3962099075317383,0
0.8398538589477539,0.3965188980102539,0
0.8412683486938476,0.3979230880737304,0
0.8424007415771484,0.3977136611938477,0
0.8434072494506836,0.3990749359130859,0
0.8434587478637695,0.3994686126708984,0
0.8448371887207031,0.4006959915161133,0
0.8461807250976562,0.4011606216430664,0
0.8470144271850586,0.4020452499389648,0
0.8477834701538086,0.4036582946777343,0
0.8483390808105469,0.4034191131591797,0
0.8493867874145508,0.4039993286132812,0
0.8498411178588867,0.4048290252685547,0
0.8498411178588867,0.4046453475952148,0
0.8505306243896484,0.4054178237915039,0
0.8509963989257813,0.4054178237915039,0
0.8524955749511719,0.4059843063354492,0
0.8526620864868164,0.4059843063354492,0
0.8528028488159179,0.4066944122314453,0
0.8533361434936523,0.4066944122314453,0
0.8534683227539063,0.4072265625000000,0
0.8542854309082031,0.4072265625000000,0
0.8543214797973633,0.4079057693481445,0
0.8544164657592773,0.4079057693481445,0
0.8543798446655273,0.4081987380981445,0
0.8545612335205078,0.4081987380981445,0
0.8557765960693359,0.4085758209228516,0
0.8557554244995117,0.4085758209228516,0
0.8557434082031250,0.4090198516845703,0
0.8562223434448242,0.4090198516845703,0
0.8563522338867188,0.4094804763793945,0
0.8570468902587890,0.4094804763793945,0
0.8571556091308593,0.4103347778320313,0
0.8573284149169922,0.4103347778320313,0
0.8573661804199219,0.4106557846069336,0
0.8575790405273437,0.4106557846069336,0
0.8589488983154296,0.4111650466918945,0
0.8590187072753906,0.4111650466918945,0
0.8590375900268554,0.4116285324096680,0
0.8594255447387695,0.4116285324096680,0
0.8595462799072265,0.4120914459228516,0
0.8602426528930663,0.4120914459228516,0
0.8602346420288086,0.4128553390502930,0
0.8604137420654296,0.4128553390502930,0
0.8602678298950195,0.4130756378173828,0
0.8603960037231445,0.4130756378173828,0
0.8616931915283202,0.4134246826171875,0
0.8617309570312500,0.4134246826171875,0
0.8616479873657227,0.4138669967651367,0
0.8620342254638672,0.4138669967651367,0
0.8620960235595703,0.4142189025878906,0
0.8627145767211913,0.4142189025878906,0
0.8627552032470703,0.4150194168090820,0
0.8628204345703124,0.4150194168090820,0
0.8627780914306641,0.4152448654174805,0
0.8629085540771484,0.4152448654174805,0
0.8642194747924804,0.4156024932861328,0
0.8642011642456054,0.4156024932861328,0
0.8641817092895507,0.4160196304321289,0
0.8645450592041015,0.4160196304321289,0
0.8645771026611327,0.4163017272949219,0
0.8650709152221679,0.4163017272949219,0
0.8650995254516601,0.4170782089233399,0
0.8652448654174805,0.4170782089233399,0
0.8650520324707031,0.4172361373901367,0
0.8651905059814453,0.4172361373901367,0
0.8663721084594727,0.4175010681152344,0
0.8663148880004883,0.4175010681152344,0
0.8662204742431641,0.4179004669189453,0
0.8666215896606445,0.4179004669189453,0
0.8666393280029296,0.4182243347167969,0
0.8672309875488281,0.4182243347167969,0
0.8672407150268554,0.4189510345458984,0
0.8672836303710937,0.4189510345458984,0
0.8672487258911132,0.4190139770507812,0
0.8673883438110351,0.4190139770507812,0
0.8684617996215820,0.4193601608276367,0
0.8683341979980469,0.4193601608276367,0
0.8681350708007812,0.4195312500000000,0
0.8683536529541015,0.4195312500000000,0
0.8682781219482422,0.4196863174438477,0
0.8687347412109375,0.4196863174438477,0
0.8687942504882812,0.4202877044677734,0
0.8687227249145507,0.4202877044677734,0
0.8684978485107422,0.4202384948730469,0
0.8685991287231445,0.4202384948730469,0
0.8696702957153321,0.4204587936401367,0
0.8696823120117188,0.4204587936401367,0
0.8696245193481446,0.4208759307861328,0
0.8699060440063476,0.4208759307861328,0
0.8700084686279297,0.4211465835571289,0
0.8706029891967774,0.4211465835571289,0
0.8706905364990234,0.4220392227172852,0
0.8708805084228516,0.4220392227172852,0
0.8706882476806640,0.4220317840576172,0
0.8707586288452148,0.4220317840576172,0
0.8718360900878906,0.4222978591918945,0
0.8718246459960938,0.4222978591918945,0
0.8717119216918945,0.4226194381713867,0
0.8719476699829102,0.4226194381713867,0
0.8719860076904297,0.4227504730224609,0
0.8724632263183594,0.4227504730224609,0
0.8724088668823242,0.4235252380371093,0
0.8723894119262695,0.4235252380371093,0
0.8721851348876953,0.4233781814575195,0
0.8723115921020508,0.4233781814575195,0
0.8732986450195312,0.4237106323242187,0
0.8733032226562499,0.4237106323242187,0
0.8732259750366210,0.4239486694335937,0
0.8734708786010742,0.4239486694335937,0
0.8734445571899414,0.4240568161010742,0
0.8739177703857421,0.4240568161010742,0
0.8738943099975586,0.4247777938842773,0
0.8739051818847656,0.4247777938842773,0
0.8736843109130860,0.4246879577636719,0
0.8737375259399414,0.4246879577636719,0
0.8747789382934570,0.4248756408691406,0
0.8746324539184570,0.4248756408691406,0
0.8744132995605468,0.4250541687011719,0
0.8746055603027344,0.4250541687011719,0
0.8744968414306641,0.4249557495117187,0
0.8747537612915038,0.4249557495117187,0
0.8746227264404297,0.4256767272949218,0
0.8745700836181640,0.4256767272949218,0
0.8742353439331054,0.4253396987915039,0
0.8741701126098632,0.4253396987915039,0
0.8752098083496094,0.4255411148071289,0
0.8751811981201172,0.4255411148071289,0
0.8750427246093749,0.4258134841918945,0
0.8753568649291992,0.4258134841918945,0
0.8753574371337890,0.4259651184082031,0
0.8757980346679687,0.4259651184082031,0
0.8758918762207031,0.4268131256103516,0
0.8759759902954102,0.4268131256103516,0
0.8757196426391601,0.4266054153442383,0
0.8756973266601562,0.4266054153442383,0
0.8765579223632812,0.4266294479370117,0
0.8764503479003906,0.4266294479370117,0
0.8760177612304687,0.4264268875122070,0
0.8758684158325195,0.4264268875122070,0
0.8753837585449219,0.4256664276123047,0
0.8750644683837890,0.4256664276123047,0
0.8745632171630859,0.4255102157592773,0
0.8737369537353515,0.4255102157592773,0
0.8728849411010742,0.4238771438598632,0
0.8717290878295898,0.4238771438598632,0
0.8713748931884765,0.4217004776000977,0
0.8693824768066406,0.4217004776000977,0
0.8666204452514649,0.4172985076904297,0
0.8632404327392578,0.4172985076904297,0
0.8592653274536133,0.4107061386108398,0
0.8555030822753906,0.4107061386108398,0
0.8518421173095703,0.4051420211791992,0
0.8480340957641601,0.4051420211791992,0
0.8446271896362304,0.3992860794067383,0
0.8417667388916016,0.3992860794067383,0
0.8405221939086914,0.3958282470703125,0
0.8388519287109375,0.3958282470703125,0
0.8377384185791016,0.3941516876220703,0
0.8372423171997070,0.3941516876220703,0
0.8367410659790039,0.3934392929077148,0
0.8369361877441406,0.3934392929077148,0
0.8370946884155274,0.3943794250488281,0
0.8373201370239257,0.3943794250488281,0
0.8375009536743164,0.3945230484008789,0
0.8379867553710937,0.3945230484008789,0
0.8393074035644531,0.3955358505249023,0
0.8399963378906250,0.3955358505249023,0
0.8403739929199219,0.3967369079589844,0
0.8412918090820313,0.3967369079589844,0
0.8417295455932617,0.3976615905761718,0
0.8426782608032226,0.3976615905761718,0
0.8433008193969727,0.3994703292846680,0
0.8437723159790039,0.3994703292846680,0
0.8442003250122070,0.3999378204345703,0
0.8446924209594726,0.3999378204345703,0
0.8459272384643555,0.4008773803710937,0
0.8464101791381836,0.4008773803710937,0
0.8465835571289062,0.4017860412597656,0
0.8472370147705078,0.4017860412597656,0
0.8476404190063477,0.4025024414062500,0
0.8483997344970703,0.4025024414062500,0
0.8488351821899414,0.4041601181030273,0
0.8492992401123046,0.4041601181030273,0
0.8496362686157226,0.4045949935913086,0
0.8501111984252929,0.4045949935913086,0
0.8515062332153320,0.4056541442871094,0
0.8519840240478516,0.4056541442871094,0
0.8523353576660156,0.4067665100097656,0
0.8531576156616211,0.4067665100097656,0
0.8536228179931641,0.4075201034545898,0
0.8543889999389648,0.4075201034545898,0
0.8548925399780273,0.4093156814575195,0
0.8554098129272460,0.4093156814575195,0
0.8556718826293945,0.4095886230468750,0
0.8559860229492188,0.4095886230468750,0
0.8570348739624023,0.4102300643920898,0
0.8573307037353516,0.4102300643920898,0
0.8574234008789062,0.4108806610107422,0
0.8578525543212890,0.4108806610107422,0
0.8579120635986328,0.4110546112060547,0
0.8583251953125000,0.4110546112060547,0
0.8585569381713867,0.4122516632080078,0
0.8586753845214844,0.4122516632080078,0
0.8585969924926757,0.4120182037353515,0
0.8586616516113281,0.4120182037353515,0
0.8594701766967773,0.4122682571411133,0
0.8594655990600586,0.4122682571411133,0
0.8593511581420898,0.4125234603881836,0
0.8596103668212890,0.4125234603881836,0
0.8595342636108398,0.4124399185180664,0
0.8598014831542968,0.4124399185180664,0
0.8598844528198242,0.4134590148925781,0
0.8599027633666992,0.4134590148925781,0
0.8598712921142578,0.4130985260009766,0
0.8598855972290039,0.4130985260009766,0
0.8607324600219727,0.4134046554565430,0
0.8606380462646485,0.4134046554565430,0
0.8607267379760742,0.4137639999389648,0
0.8611450195312500,0.4137639999389648,0
0.8611667633056640,0.4138286590576172,0
0.8615942001342773,0.4138286590576172,0
0.8617818832397460,0.4151081085205078,0
0.8618997573852539,0.4151081085205078,0
0.8619775772094727,0.4148649215698242,0
0.8621212005615234,0.4148649215698242,0
0.8628913879394531,0.4153295516967773,0
0.8631465911865234,0.4153295516967773,0
0.8630298614501953,0.4157312393188476,0
0.8634086608886719,0.4157312393188476,0
0.8634092330932617,0.4157094955444336,0
0.8636644363403320,0.4157094955444336,0
0.8639219284057617,0.4169082641601562,0
0.8640151977539062,0.4169082641601562,0
0.8640935897827148,0.4166919708251953,0
0.8642589569091796,0.4166919708251953,0
0.8649398803710937,0.4171033859252929,0
0.8651132583618164,0.4171033859252929,0
0.8650978088378906,0.4174850463867187,0
0.8655355453491210,0.4174850463867187,0
0.8654703140258789,0.4174907684326172,0
0.8657838821411132,0.4174907684326172,0
0.8659778594970703,0.4186935424804688,0
0.8661083221435547,0.4186935424804688,0
0.8660923004150390,0.4183839797973632,0
0.8661741256713867,0.4183839797973632,0
0.8669019699096679,0.4187479019165039,0
0.8671749114990234,0.4187479019165039,0
0.8672121047973632,0.4192583084106445,0
0.8676315307617187,0.4192583084106445,0
0.8675754547119140,0.4192354202270508,0
0.8679342269897461,0.4192354202270508,0
0.8682701110839843,0.4204730987548828,0
0.8683010101318359,0.4204730987548828,0
0.8683633804321289,0.4201108932495117,0
0.8683994293212890,0.4201108932495117,0
0.8690643310546875,0.4204387664794922,0
0.8690792083740234,0.4204387664794922,0
0.8688903808593750,0.4206825256347656,0
0.8692382812500000,0.4206825256347656,0
0.8690191268920898,0.4204730987548828,0
0.8691930770874023,0.4204730987548828,0
0.8693950653076171,0.4215408325195312,0
0.8694047927856445,0.4215408325195312,0
0.8695123672485351,0.4211631774902344,0
0.8693887710571289,0.4211631774902344,0
0.8701938629150391,0.4214258193969727,0
0.8702585220336914,0.4214258193969727,0
0.8701309204101563,0.4217210769653320,0
0.8704181671142578,0.4217210769653320,0
0.8703872680664062,0.4216192245483398,0
0.8705669403076172,0.4216192245483398,0
0.8707735061645507,0.4227287292480469,0
0.8706808090209961,0.4227287292480469,0
0.8707529067993164,0.4221628189086914,0
0.8705926895141601,0.4221628189086914,0
0.8711128234863281,0.4224288940429687,0
0.8712358474731445,0.4224288940429687,0
0.8710504531860351,0.4226463317871094,0
0.8713457107543945,0.4226463317871094,0
0.8710910797119140,0.4223030090332031,0
0.8712198257446289,0.4223030090332031,0
0.8712690353393554,0.4232946395874023,0
0.8711700439453125,0.4232946395874023,0
0.8712816238403320,0.4229885101318359,0
0.8715030670166015,0.4225873947143555,0
0.8717084884643554,0.4237380981445312,0
0.8717697143554687,0.4237380981445312,0
0.8718755722045898,0.4233461380004883,0
0.8718469619750976,0.4233461380004883,0
0.8725032806396484,0.4236454010009765,0
0.8727310180664062,0.4236454010009765,0
0.8726457595825196,0.4240602493286132,0
0.8731304168701172,0.4240602493286132,0
0.8730468750000000,0.4239074707031250,0
0.8733324050903321,0.4239074707031250,0
0.8735092163085937,0.4251646041870117,0
0.8734783172607422,0.4251646041870117,0
0.8736316680908203,0.4246730804443359,0
0.8735034942626952,0.4246730804443359,0
0.8739721298217773,0.4247686386108399,0
0.8740699768066406,0.4247686386108399,0
0.8738651275634766,0.4249912261962890,0
0.8741369247436523,0.4249912261962890,0
0.8739212036132812,0.4246215820312500,0
0.8739406585693359,0.4246215820312500,0
0.8738634109497070,0.4255868911743164,0
0.8737689971923828,0.4255868911743164,0
0.8738170623779297,0.4250684738159179,0
0.8737724304199218,0.4250684738159179,0
0.8742061614990234,0.4252601623535156,0
0.8743177413940429,0.4252601623535156,0
0.8740980148315429,0.4254587173461914,0
0.8743846893310546,0.4254587173461914,0
0.8740505218505860,0.4249626159667969,0
0.8740184783935546,0.4249626159667969,0
0.8739383697509765,0.4258060455322266,0
0.8735733032226562,0.4258060455322266,0
0.8733970642089843,0.4247594833374023,0
0.8727985382080078,0.4247594833374023,0
0.8727544784545899,0.4240779876708984,0
0.8722269058227539,0.4240779876708984,0
0.8714624404907226,0.4233112335205078,0
0.8709686279296874,0.4233112335205078,0
0.8698871612548827,0.4214298248291016,0
0.8686655044555663,0.4214298248291016,0
0.8672418594360352,0.4198585510253906,0
0.8650074005126953,0.4198585510253906,0
0.8621841430664062,0.4142332077026367,0
0.8582324981689453,0.4142332077026367,0
0.8547157287597656,0.4075927734375000,0
0.8503892898559570,0.4075927734375000,0
0.8463008880615234,0.4009609222412109,0
0.8427898406982421,0.4009609222412109,0
0.8398143768310546,0.3957223892211914,0
0.8376285552978515,0.3957223892211914,0
0.8362913131713867,0.3941064834594726,0
0.8349666595458984,0.3941064834594726,0
0.8344253540039063,0.3922193527221680,0
0.8336580276489257,0.3922193527221680,0
0.8338823318481445,0.3918462753295898,0
0.8339675903320313,0.3918462753295898,0
0.8339818954467774,0.3923126220703125,0
0.8345930099487304,0.3923126220703125,0
0.8347480773925781,0.3925003051757812,0
0.8352785110473633,0.3925003051757812,0
0.8358839035034179,0.3944177627563477,0
0.8364646911621093,0.3944177627563477,0
0.8371953964233398,0.3949556350708008,0
0.8379495620727538,0.3949556350708008,0
0.8389978408813477,0.3963769912719726,0
0.8399763107299805,0.3963769912719726,0
0.8406595230102539,0.3979356765747070,0
0.8419464111328124,0.3979356765747070,0
0.8424224853515625,0.3987722396850586,0
0.8433357238769531,0.3987722396850586,0
0.8440898895263672,0.4010536193847656,0
0.8447387695312499,0.4010536193847656,0
0.8455032348632813,0.4015846252441406,0
0.8460439682006836,0.4015846252441406,0
0.8469606399536133,0.4027616500854492,0
0.8478200912475585,0.4027616500854492,0
0.8481925964355469,0.4039810180664062,0
0.8492597579956055,0.4039810180664062,0
0.8495384216308594,0.4045560836791992,0
0.8502244949340820,0.4045560836791992,0
0.8509180068969726,0.4067836761474609,0
0.8514839172363281,0.4067836761474609,0
0.8522832870483398,0.4071956634521484,0
0.8528474807739258,0.4071956634521484,0
0.8536794662475585,0.4083166122436523,0
0.8543523788452149,0.4083166122436523,0
0.8547758102416992,0.4094615936279297,0
0.8557102203369140,0.4094615936279297,0
0.8558727264404297,0.4098598480224609,0
0.8563922882080078,0.4098598480224609,0
0.8568586349487305,0.4115295410156250,0
0.8571384429931640,0.4115295410156250,0
0.8577032089233398,0.4115129470825195,0
0.8577323913574219,0.4115129470825195,0
0.8582078933715820,0.4120262145996094,0
0.8585460662841796,0.4120262145996094,0
0.8585638046264649,0.4125623703002930,0
0.8590473175048828,0.4125623703002930,0
0.8588550567626952,0.4122156143188476,0
0.8589529037475586,0.4122156143188476,0
0.8590307235717773,0.4133571624755859,0
0.8588802337646484,0.4133571624755859,0
0.8590730667114258,0.4129194259643554,0
0.8591880798339844,0.4129194259643554,0
0.8595319747924804,0.4130830764770508,0
0.8597791671752929,0.4130830764770508,0
0.8598764419555663,0.4136346817016601,0
0.8603473663330078,0.4136346817016601,0
0.8602432250976563,0.4133680343627930,0
0.8603507995605468,0.4133680343627930,0
0.8606575012207031,0.4147830963134765,0
0.8607782363891602,0.4147830963134765,0
0.8612937927246094,0.4146211624145508,0
0.8613584518432617,0.4146211624145508,0
0.8619077682495117,0.4151092529296875,0
0.8622488021850586,0.4151092529296875,0
0.8623712539672851,0.4157438278198242,0
0.8631408691406249,0.4157438278198242,0
0.8631122589111327,0.4158685684204101,0
0.8634458541870117,0.4158685684204101,0
0.8639127731323242,0.4174730300903320,0
0.8641233444213867,0.4174730300903320,0
0.8647327423095703,0.4174369812011718,0
0.8647785186767578,0.4174369812011718,0
0.8652580261230468,0.4178689956665039,0
0.8656339645385742,0.4178689956665039,0
0.8657810211181640,0.4185321807861328,0
0.8664716720581055,0.4185321807861328,0
0.8662982940673828,0.4185092926025391,0
0.8665277481079101,0.4185092926025391,0
0.8667680740356445,0.4199529647827148,0
0.8669374465942382,0.4199529647827148,0
0.8674438476562499,0.4196720123291016,0
0.8673322677612304,0.4196720123291016,0
0.8676361083984375,0.4199249267578125,0
0.8678770065307617,0.4199249267578125,0
0.8678478240966797,0.4203821182250976,0
0.8683227539062500,0.4203821182250976,0
0.8681241989135742,0.4200170516967773,0
0.8681676864624023,0.4200170516967773,0
0.8682455062866211,0.4211666107177734,0
0.8681116104125977,0.4211666107177734,0
0.8683164596557617,0.4209320068359375,0
0.8682958602905273,0.4203907012939453,0
0.8685184478759765,0.4215820312500000,0
0.8684589385986328,0.4215820312500000,0
0.8690294265747071,0.4211597442626953,0
0.8687988281250000,0.4211597442626953,0
0.8689762115478515,0.4212873458862305,0
0.8691890716552734,0.4212873458862305,0
0.8691101074218750,0.4216558456420899,0
0.8693893432617187,0.4215969085693359,0
0.8695289611816406,0.4213153839111328,0
0.8697177886962890,0.4217576980590820,0
0.8702230453491211,0.4222377777099609,0
0.8700925827026367,0.4221176147460937,0
0.8702939987182617,0.4224271774291992,0
0.8702653884887696,0.4229146957397461,0
0.8708953857421875,0.4228654861450195,0
0.8708101272583008,0.4228826522827148,0
0.8712959289550781,0.4230354309082031,0
0.8711133956909179,0.4237695693969726,0
0.8716255187988281,0.4233203887939453,0
0.8713508605957031,0.4230548858642578,0
0.8717954635620117,0.4235464096069336,0
0.8722394943237305,0.4239234924316406,0
0.8721130371093749,0.4238239288330078,0
0.8721021652221680,0.4239973068237304,0
0.8721742630004883,0.4239973068237304,0
0.8726875305175781,0.4243177413940429,0
0.8725255966186524,0.4243371963500976,0
0.8730222702026367,0.4246124267578125,0
0.8728019714355468,0.4253643035888672,0
0.8735143661499023,0.4250221252441406,0
0.8734628677368164,0.4250221252441406,0
0.8736322402954101,0.4252990722656250,0
0.8736322402954101,0.4260108947753906,0
0.8743143081665039,0.4256681442260742,0
0.8741083145141602,0.4259428024291992,0
0.8743183135986328,0.4263713836669922,0
0.8743377685546875,0.4266265869140625,0
0.8747852325439452,0.4262151718139648,0
0.8748018264770507,0.4259330749511719,0
0.8747463226318359,0.4269086837768555,0
0.8748876571655273,0.4265911102294922,0
0.8745878219604492,0.4261842727661133,0
0.8745878219604492,0.4256755828857422,0
0.8738737106323242,0.4261682510375976,0
0.8736127853393555,0.4253728866577148,0
0.8723573684692383,0.4237089157104492,0
0.8714023590087890,0.4237089157104492,0
0.8679479598999024,0.4223590850830078,0
0.8681699752807617,0.4204593658447265,0
0.8631139755249023,0.4151510238647461,0
0.8598438262939453,0.4120038986206054,0
0.8521854400634765,0.4064569473266602,0
0.8490749359130859,0.4064867019653320,0
0.8437940597534179,0.4014839172363281,0
0.8440612792968750,0.4004104614257812,0
0.8416254043579101,0.3989021301269531,0
0.8414617538452148,0.3989021301269531,0
0.8409742355346680,0.3979139328002930,0
0.8409742355346680,0.3983442306518555,0
0.8415962219238281,0.3990835189819336,0
0.8424322128295898,0.3994514465332031,0
0.8433826446533202,0.4001186370849609,0
0.8433826446533202,0.4005168914794922,0
0.8450031280517578,0.4020498275756836,0
0.8462865829467773,0.4025785446166992,0
0.8475746154785156,0.4036136627197265,0
0.8475746154785156,0.4039392471313477,0
0.8490812301635742,0.4053445816040039,0
0.8502199172973632,0.4058526992797851,0
0.8511972427368164,0.4065330505371094,0
0.8520275115966797,0.4069335937500000,0
0.8523319244384765,0.4081192016601562,0
0.8533613204956054,0.4084150314331055,0
0.8551019668579102,0.4104503631591797,0
0.8563865661621094,0.4110700607299805,0
0.8566984176635742,0.4118894577026367,0
0.8579360961914062,0.4131088256835938,0
0.8585586547851562,0.4133228302001953,0
0.8598495483398437,0.4139717102050781,0
0.8600114822387696,0.4145988464355468,0
0.8608898162841797,0.4155973434448242,0
0.8613893508911132,0.4158124923706055,0
0.8625234603881836,0.4161455154418945,0
0.8623695373535156,0.4166278839111328,0
0.8628335952758789,0.4171943664550781,0
0.8630041122436524,0.4173986434936524,0
0.8638269424438476,0.4172281265258789,0
0.8634990692138672,0.4175279617309570,0
0.8636363983154297,0.4179193496704102,0
0.8636135101318360,0.4181179046630859,0
0.8644609451293945,0.4178340911865234,0
0.8640993118286132,0.4181219100952148,0
0.8640317916870117,0.4182826995849609,0
0.8639997482299805,0.4184881210327148,0
0.8644466400146484,0.4181413650512695,0
0.8643836975097656,0.4183364868164062,0
0.8642967224121093,0.4186054229736328,0
0.8643665313720703,0.4188400268554687,0
0.8652254104614258,0.4185596466064453,0
0.8649204254150390,0.4189361572265625,0
0.8651046752929688,0.4193550109863281,0
0.8653724670410156,0.4195455551147461,0
0.8664693832397461,0.4196084976196289,0
0.8662313461303711,0.4200325012207031,0
0.8667675018310547,0.4207511901855469,0
0.8667675018310547,0.4209354400634766,0
0.8684057235717774,0.4212495803833008,0
0.8684085845947266,0.4218229293823242,0
0.8691415786743164,0.4225788116455078,0
0.8695878982543945,0.4227293014526367,0
0.8706722259521484,0.4229816436767578,0
0.8705715179443360,0.4234491348266601,0
0.8709692001342774,0.4239761352539063,0
0.8709692001342774,0.4241752624511719,0
0.8720294952392578,0.4241615295410156,0
0.8718000411987304,0.4245300292968750,0
0.8719121932983398,0.4247949600219726,0
0.8720197677612305,0.4249809265136719,0
0.8724929809570312,0.4246416091918945,0
0.8725742340087891,0.4254301071166992,0
0.8727664947509766,0.4253648757934570,0
0.8729942321777343,0.4257053375244140,0
0.8737524032592773,0.4257053375244140,0
0.8735069274902344,0.4256069183349609,0
0.8735813140869141,0.4260303497314453,0
0.8739910125732422,0.4264577865600586,0
0.8746553421020508,0.4264577865600586,0
0.8744087219238281,0.4264303207397461,0
0.8744087219238281,0.4267467498779297,0
0.8748086929321289,0.4271427154541015,0
0.8754976272583007,0.4271427154541015,0
0.8749391555786132,0.4268869400024414,0
0.8749391555786132,0.4271581649780273,0
0.8750141143798827,0.4273944854736328,0
0.8756423950195312,0.4272417068481445,0
0.8750558853149414,0.4270488739013672,0
0.8750558853149414,0.4272439956665039,0
0.8750158309936523,0.4275398254394531,0
0.8757316589355468,0.4273939132690430,0
0.8751342773437499,0.4271244049072265,0
0.8753511428833007,0.4274551391601563,0
0.8752452850341796,0.4277566909790039,0
0.8758907318115234,0.4276885986328125,0
0.8753946304321288,0.4274745941162109,0
0.8755966186523437,0.4277893066406250,0
0.8755931854248047,0.4281080245971680,0
0.8763261795043945,0.4280593872070312,0
0.8759622573852539,0.4280033111572266,0
0.8762351989746093,0.4283477783203125,0
0.8763072967529296,0.4287065505981445,0
0.8770288467407227,0.4286481857299805,0
0.8766706466674804,0.4285938262939453,0
0.8770786285400390,0.4288936614990234,0
0.8770030975341797,0.4292278289794922,0
0.8778093338012695,0.4291992187500000,0
0.8771318435668946,0.4289571762084961,0
0.8773069381713867,0.4292255401611328,0
0.8771055221557617,0.4292730331420898,0
0.8775409698486328,0.4290515899658203,0
0.8763044357299804,0.4285903930664062,0
0.8757442474365235,0.4285903930664062,0
0.8758781433105468,0.4276714324951172,0
0.8748693466186523,0.4264995574951172,0
0.8737609863281249,0.4268600463867188,0
0.8728763580322265,0.4255279541015625,0
0.8723442077636718,0.4242942810058594,0
0.8688142776489257,0.4213651657104492,0
0.8688142776489257,0.4217313766479492,0
0.8645370483398437,0.4178718566894531,0
0.8622997283935546,0.4178718566894531,0
0.8593179702758789,0.4132347106933594,0
0.8564981460571289,0.4132347106933594,0
0.8543907165527344,0.4102134704589844,0
0.8528011322021484,0.4102134704589844,0
0.8527702331542969,0.4081529617309570,0
0.8517494201660156,0.4081529617309570,0
0.8511280059814453,0.4076591491699219,0
0.8512933731079101,0.4076591491699219,0
0.8513431549072266,0.4080505371093750,0
0.8523296356201172,0.4080505371093750,0
0.8523090362548827,0.4085546493530273,0
0.8527496337890624,0.4085546493530273,0
0.8531833648681640,0.4100715637207031,0
0.8539243698120117,0.4100715637207031,0
0.8557279586791992,0.4110580444335937,0
0.8560718536376953,0.4110580444335937,0
0.8564231872558593,0.4122682571411133,0
0.8574033737182617,0.4122682571411133,0
0.8580224990844726,0.4135705947875977,0
0.8593751907348632,0.4135705947875977,0
0.8595422744750977,0.4145599365234375,0
0.8601133346557617,0.4145599365234375,0
0.8605241775512695,0.4160963058471679,0
0.8611650466918945,0.4160963058471679,0
0.8628719329833984,0.4170490264892578,0
0.8631877899169922,0.4170490264892578,0
0.8636375427246094,0.4182111740112305,0
0.8645135879516601,0.4182111740112305,0
0.8649553298950196,0.4195095062255859,0
0.8663097381591797,0.4195095062255859,0
0.8664316177368164,0.4204210281372070,0
0.8669254302978515,0.4204210281372070,0
0.8672882080078125,0.4218429565429687,0
0.8678752899169921,0.4218429565429687,0
0.8694591522216797,0.4225845336914062,0
0.8695295333862304,0.4225845336914062,0
0.8696725845336913,0.4233741760253906,0
0.8703088760375977,0.4233741760253906,0
0.8705492019653320,0.4241300582885742,0
0.8713125228881836,0.4241300582885742,0
0.8712249755859375,0.4244407653808593,0
0.8713079452514648,0.4244407653808593,0
0.8713846206665039,0.4251537322998047,0
0.8715808868408202,0.4251537322998047,0
0.8728054046630859,0.4254135131835937,0
0.8726142883300781,0.4254135131835937,0
0.8724758148193359,0.4257225036621093,0
0.8726943969726563,0.4257225036621093,0
0.8728105545043945,0.4260503768920899,0
0.8734251022338867,0.4260503768920899,0
0.8731973648071288,0.4260869979858398,0
0.8731298446655273,0.4260869979858398,0
0.8729953765869141,0.4266094207763672,0
0.8730062484741211,0.4266094207763672,0
0.8740877151489258,0.4265253067016602,0
0.8737592697143555,0.4265253067016602,0
0.8735309600830078,0.4265779495239257,0
0.8736848831176758,0.4265779495239257,0
0.8736522674560546,0.4268028259277344,0
0.8742656707763672,0.4268028259277344,0
0.8739824295043945,0.4268165588378906,0
0.8738296508789062,0.4268165588378906,0
0.8736717224121093,0.4273332595825195,0
0.8738536834716797,0.4273332595825195,0
0.8750604629516602,0.4274408340454102,0
0.8749231338500977,0.4274408340454102,0
0.8748962402343750,0.4278636932373047,0
0.8752693176269531,0.4278636932373047,0
0.8753774642944335,0.4283054351806641,0
0.8760892868041992,0.4283054351806641,0
0.8759376525878906,0.4285434722900390,0
0.8759433746337890,0.4285434722900390,0
0.8758398056030273,0.4291116714477539,0
0.8759759902954102,0.4291116714477539,0
0.8773218154907226,0.4293159484863281,0
0.8771381378173828,0.4293159484863281,0
0.8769269943237304,0.4295619964599609,0
0.8772331237792969,0.4295619964599609,0
0.8772726058959961,0.4299247741699219,0
0.8779472351074219,0.4299247741699219,0
0.8776954650878906,0.4300609588623047,0
0.8776044845581055,0.4300609588623047,0
0.8776027679443359,0.4305141448974609,0
0.8776102066040039,0.4305141448974609,0
0.8789068222045898,0.4306583404541016,0
0.8786144256591797,0.4306583404541016,0
0.8784868240356445,0.4309438705444336,0
0.8788816452026367,0.4309438705444336,0
0.8789726257324219,0.4313793182373047,0
0.8797657012939453,0.4313793182373047,0
0.8797021865844726,0.4317169189453125,0
0.8797170639038085,0.4317169189453125,0
0.8796117782592773,0.4322238922119140,0
0.8797628402709960,0.4322238922119140,0
0.8809398651123047,0.4322788238525391,0
0.8806194305419922,0.4322788238525391,0
0.8803379058837890,0.4323423385620117,0
0.8805158615112304,0.4323423385620117,0
0.8804168701171875,0.4324470520019531,0
0.8809667587280273,0.4324470520019531,0
0.8806554794311523,0.4325763702392578,0
0.8806320190429687,0.4325763702392578,0
0.8803533554077149,0.4329214096069336,0
0.8805376052856445,0.4329214096069336,0
0.8817781448364258,0.4330072402954102,0
0.8815103530883789,0.4330072402954102,0
0.8813970565795898,0.4332687377929688,0
0.8817117691040038,0.4332687377929688,0
0.8817049026489258,0.4335731506347656,0
0.8824905395507813,0.4335731506347656,0
0.8820528030395508,0.4337413787841797,0
0.8820116043090820,0.4337413787841797,0
0.8818416595458984,0.4340744018554688,0
0.8819818496704102,0.4340744018554688,0
0.8831777572631836,0.4341144561767578,0
0.8828744888305664,0.4341144561767578,0
0.8827188491821288,0.4342918395996094,0
0.8829820632934570,0.4342918395996094,0
0.8828287124633789,0.4344932556152344,0
0.8834037780761719,0.4344932556152344,0
0.8831005096435547,0.4346906661987305,0
0.8830564498901367,0.4346906661987305,0
0.8828069686889648,0.4348955154418945,0
0.8828538894653321,0.4348955154418945,0
0.8840749740600585,0.4349395751953125,0
0.8838066101074219,0.4349395751953125,0
0.8835634231567383,0.4351100921630859,0
0.8837602615356445,0.4351100921630859,0
0.8837476730346679,0.4352525711059570,0
0.8842254638671875,0.4352525711059570,0
0.8840314865112304,0.4354202270507813,0
0.8838970184326171,0.4354202270507813,0
0.8834175109863281,0.4354030609130859,0
0.8832338333129882,0.4354030609130859,0
0.8842575073242187,0.4351810455322265,0
0.8836692810058594,0.4351810455322265,0
0.8831686019897461,0.4347719192504882,0
0.8829202651977539,0.4347719192504882,0
0.8825551986694335,0.4342111587524414,0
0.8824825286865234,0.4342111587524414,0
0.8817947387695312,0.4335811614990234,0
0.8809101104736328,0.4335811614990234,0
0.8799093246459960,0.4323795318603516,0
0.8789285659790039,0.4323795318603516,0
0.8789314270019531,0.4304792404174805,0
0.8772623062133789,0.4304792404174805,0
0.8756572723388671,0.4282001495361328,0
0.8741941452026367,0.4282001495361328,0
0.8724723815917969,0.4252859115600586,0
0.8709360122680664,0.4252859115600586,0
0.8690219879150390,0.4223733901977539,0
0.8671125411987305,0.4223733901977539,0
0.8654079437255859,0.4200044631958008,0
0.8641748428344727,0.4200044631958008,0
0.8646205902099610,0.4187461853027344,0
0.8638315200805664,0.4187461853027344,0
0.8635665893554687,0.4185768127441406,0
0.8638378143310547,0.4185768127441406,0
0.8641084671020508,0.4190837860107422,0
0.8649387359619141,0.4190837860107422,0
0.8652797698974609,0.4200805664062500,0
0.8657163619995117,0.4200805664062500,0
0.8659194946289063,0.4210430145263672,0
0.8665014266967773,0.4210430145263672,0
0.8681631088256836,0.4220203399658203,0
0.8685453414916992,0.4220203399658203,0
0.8688148498535156,0.4231401443481445,0
0.8696605682373046,0.4231401443481445,0
0.8701200485229492,0.4241878509521484,0
0.8711683273315429,0.4241878509521484,0
0.8715230941772460,0.4255302429199219,0
0.8720329284667968,0.4255302429199219,0
0.8722732543945312,0.4264097213745117,0
0.8727544784545899,0.4264097213745117,0
0.8744127273559570,0.4273498535156250,0
0.8746845245361328,0.4273498535156250,0
0.8750249862670898,0.4284353256225586,0
0.8757081985473633,0.4284353256225586,0
0.8761156082153320,0.4293640136718750,0
0.8770088195800781,0.4293640136718750,0
0.8772943496704101,0.4303785324096679,0
0.8775632858276367,0.4303785324096679,0
0.8775587081909180,0.4309198379516602,0
0.8779054641723633,0.4309198379516602,0
0.8792959213256836,0.4313936233520508,0
0.8792295455932617,0.4313936233520508,0
0.8792421340942382,0.4318342208862305,0
0.8795745849609374,0.4318342208862305,0
0.8796575546264648,0.4321701049804688,0
0.8802646636962891,0.4321701049804688,0
0.8802652359008789,0.4328498840332031,0
0.8802995681762695,0.4328498840332031,0
0.8800775527954101,0.4329425811767578,0
0.8801656723022461,0.4329425811767578,0
0.8812860488891602,0.4330432891845703,0
0.8811624526977538,0.4330432891845703,0
0.8810405731201172,0.4332447052001953,0
0.8812591552734375,0.4332447052001953,0
0.8812208175659180,0.4334197998046875,0
0.8816482543945312,0.4334197998046875,0
0.8815910339355468,0.4339834213256836,0
0.8815990447998047,0.4339834213256836,0
0.8813375473022461,0.4339645385742187,0
0.8813753128051758,0.4339645385742187,0
0.8826124191284179,0.4341430664062500,0
0.8824476242065430,0.4341430664062500,0
0.8822530746459961,0.4343742370605468,0
0.8824544906616211,0.4343742370605468,0
0.8824298858642577,0.4344223022460937,0
0.8828596115112305,0.4344223022460937,0
0.8827440261840820,0.4349939346313477,0
0.8826993942260742,0.4349939346313477,0
0.8823440551757812,0.4348691940307617,0
0.8823675155639649,0.4348691940307617,0
0.8834524154663086,0.4349407196044922,0
0.8832550048828125,0.4349407196044922,0
0.8829563140869140,0.4350591659545898,0
0.8832098007202148,0.4350591659545898,0
0.8831800460815430,0.4351793289184570,0
0.8835960388183594,0.4351793289184570,0
0.8834964752197265,0.4357755661010742,0
0.8834095001220703,0.4357755661010742,0
0.8829797744750977,0.4356290817260742,0
0.8829391479492187,0.4356290817260742,0
0.8839868545532227,0.4356725692749023,0
0.8838317871093749,0.4356725692749023,0
0.8835302352905273,0.4358287811279297,0
0.8837202072143554,0.4358287811279297,0
0.8836818695068359,0.4359157562255859,0
0.8841573715209960,0.4359157562255859,0
0.8841550827026367,0.4365325927734375,0
0.8841264724731445,0.4364015579223633,0
0.8845418930053711,0.4363952636718750,0
0.8844165802001953,0.4365383148193359,0
0.8851856231689453,0.4367603302001953,0
0.8852170944213867,0.4367603302001953,0
0.8850894927978515,0.4371288299560547,0
0.8853704452514648,0.4371288299560547,0
0.8855226516723632,0.4373588562011719,0
0.8860536575317383,0.4373588562011719,0
0.8860553741455078,0.4381570816040039,0
0.8861509323120117,0.4381570816040039,0
0.8859695434570313,0.4380752563476563,0
0.8860033035278320,0.4380752563476563,0
0.8871889114379883,0.4383396148681640,0
0.8870790481567382,0.4383396148681640,0
0.8869010925292968,0.4385347366333008,0
0.8870933532714843,0.4385347366333008,0
0.8870887756347656,0.4386262893676758,0
0.8874853134155273,0.4386262893676758,0
0.8873794555664062,0.4392168045043945,0
0.8872747421264648,0.4392168045043945,0
0.8868364334106446,0.4388648986816406,0
0.8866968154907227,0.4388648986816406,0
0.8875911712646484,0.4388242721557617,0
0.8873594284057617,0.4388242721557617,0
0.8870264053344726,0.4388511657714844,0
0.8870447158813476,0.4388511657714844,0
0.8869388580322265,0.4386857986450195,0
0.8872404098510742,0.4386857986450195,0
0.8871929168701171,0.4392614364624023,0
0.8869840621948242,0.4392614364624023,0
0.8866516113281250,0.4389478683471680,0
0.8866395950317383,0.4389478683471680,0
0.8875671386718750,0.4390834808349609,0
0.8874475479125976,0.4390834808349609,0
0.8872941970825196,0.4392539978027344,0
0.8875139236450195,0.4392539978027344,0
0.8874584197998047,0.4392797470092774,0
0.8878429412841796,0.4392797470092774,0
0.8878732681274414,0.4400413513183594,0
0.8878040313720703,0.4400413513183594,0
0.8876747131347656,0.4398691177368164,0
0.8877382278442383,0.4398691177368164,0
0.8888082504272461,0.4400619506835937,0
0.8886772155761719,0.4400619506835937,0
0.8884569168090820,0.4401803970336914,0
0.8886062622070312,0.4401803970336914,0
0.8884689331054687,0.4399492263793945,0
0.8886068344116210,0.4399492263793945,0
0.8883739471435547,0.4402513504028320,0
0.8879007339477539,0.4402513504028320,0
0.8873056411743164,0.4393667221069336,0
0.8868593215942383,0.4393667221069336,0
0.8873920440673828,0.4387968063354492,0
0.8867179870605468,0.4387968063354492,0
0.8859964370727539,0.4379236221313477,0
0.8854328155517578,0.4379236221313477,0
0.8845802307128906,0.4366201400756836,0
0.8839765548706054,0.4366201400756836,0
0.8830186843872070,0.4357011795043945,0
0.8818136215209961,0.4357011795043945,0
0.8805742263793945,0.4336521148681641,0
0.8796415328979492,0.4336521148681641,0
0.8797737121582031,0.4324184417724609,0
0.8788919448852539,0.4324184417724609,0
0.8782047271728516,0.4315103530883789,0
0.8779386520385742,0.4315103530883789,0
0.8775146484374999,0.4309129714965820,0
0.8776279449462890,0.4309129714965820,0
0.8775936126708984,0.4315492630004883,0
0.8776084899902343,0.4315492630004883,0
0.8775758743286133,0.4314085006713867,0
0.8776760101318359,0.4314085006713867,0
0.8789091110229492,0.4319355010986328,0
0.8791694641113281,0.4319355010986328,0
0.8793439865112305,0.4326953887939453,0
0.8799453735351562,0.4326953887939453,0
0.8801639556884765,0.4332979202270508,0
0.8809141159057617,0.4332979202270508,0
0.8813838958740234,0.4348154067993164,0
0.8817581176757813,0.4348154067993164,0
0.8818891525268554,0.4350757598876953,0
0.8823211669921874,0.4350757598876953,0
0.8837139129638671,0.4360158920288086,0
0.8840309143066406,0.4360158920288086,0
0.8843095779418945,0.4368135452270508,0
0.8849933624267577,0.4368135452270508,0
0.8852806091308594,0.4375362396240234,0
0.8861354827880860,0.4375362396240234,0
0.8866098403930663,0.4391921997070312,0
0.8871007919311523,0.4391921997070312,0
0.8875545501708985,0.4397438049316406,0
0.8882205963134765,0.4397438049316406,0
0.8897066116333008,0.4408327102661133,0
0.8901775360107421,0.4408327102661133,0
0.8904006958007812,0.4418134689331055,0
0.8909746170043945,0.4418134689331055,0
0.8899435043334961,0.4411502838134765,0
0.8904098510742188,0.4411502838134765,0
0.8907583236694335,0.4424314498901367,0
0.8907537460327148,0.4424314498901367,0
0.8904390335083008,0.4419404983520508,0
0.8902645111083984,0.4419404983520508,0
0.8910203933715820,0.4418174743652344,0
0.8906730651855469,0.4418174743652344,0
0.8901351928710938,0.4414793014526367,0
0.8898839950561523,0.4414793014526367,0
0.8893260955810547,0.4406398773193359,0
0.8889804840087890,0.4406398773193359,0
0.8884517669677734,0.4409420013427734,0
0.8891075134277343,0.4409420013427734,0
0.8889776229858398,0.4406124114990234,0
0.8883762359619141,0.4406124114990234,0
0.8898639678955078,0.4409997940063476,0
0.8895498275756836,0.4409997940063476,0
0.8891452789306641,0.4410255432128906,0
0.8897426605224609,0.4410255432128906,0
0.8895452499389648,0.4409288406372070,0
0.8898485183715820,0.4409288406372070,0
0.8899629592895507,0.4420211791992187,0
0.8901214599609375,0.4420211791992187,0
0.8902198791503906,0.4418930053710937,0
0.8904550552368163,0.4418930053710937,0
0.8914821624755859,0.4424360275268555,0
0.8917825698852538,0.4424360275268555,0
0.8917173385620117,0.4429212570190429,0
0.8920898437500000,0.4429212570190429,0
0.8920057296752929,0.4429035186767578,0
0.8923553466796875,0.4429035186767578,0
0.8924411773681641,0.4437950134277344,0
0.8923055648803710,0.4437950134277344,0
0.8921710968017578,0.4433149337768554,0
0.8919639587402344,0.4433149337768554,0
0.8926631927490234,0.4433423995971680,0
0.8925258636474609,0.4433423995971680,0
0.8922094345092774,0.4434225082397461,0
0.8923770904541015,0.4434225082397461,0
0.8922449111938476,0.4432050704956055,0
0.8924875259399414,0.4432050704956055,0
0.8925436019897460,0.4440965652465820,0
0.8924297332763672,0.4440965652465820,0
0.8922632217407226,0.4436862945556641,0
0.8922517776489257,0.4436862945556641,0
0.8930540084838867,0.4438756942749023,0
0.8930871963500976,0.4438756942749023,0
0.8928863525390625,0.4440427780151367,0
0.8931060791015625,0.4440427780151367,0
0.8930179595947265,0.4438276290893555,0
0.8931632995605469,0.4438276290893555,0
0.8932153701782226,0.4447431564331055,0
0.8930030822753906,0.4447431564331055,0
0.8927667617797851,0.4441572189331054,0
0.8926162719726562,0.4441572189331054,0
0.8932914733886719,0.4441755294799805,0
0.8931581497192382,0.4441755294799805,0
0.8928760528564453,0.4442819595336914,0
0.8931610107421875,0.4442819595336914,0
0.8929121017456054,0.4440399169921875,0
0.8931026458740234,0.4440399169921875,0
0.8933160781860351,0.4450572967529297,0
0.8932313919067383,0.4450572967529297,0
0.8931913375854492,0.4446069717407227,0
0.8932056427001953,0.4446069717407227,0
0.8940095901489258,0.4448862075805664,0
0.8941904067993164,0.4448862075805664,0
0.8940273284912109,0.4452478408813477,0
0.8944152832031250,0.4452478408813477,0
0.8943677902221679,0.4452478408813477,0
0.8947465896606445,0.4452478408813477,0
0.8950017929077149,0.4463888168334961,0
0.8949903488159180,0.4463888168334961,0
0.8949760437011719,0.4460266113281250,0
0.8949668884277343,0.4460266113281250,0
0.8958108901977538,0.4462835311889649,0
0.8958641052246094,0.4462835311889649,0
0.8956272125244140,0.4464065551757813,0
0.8958503723144531,0.4464065551757813,0
0.8956197738647461,0.4460929870605468,0
0.8956512451171875,0.4460929870605468,0
0.8955917358398438,0.4468545913696289,0
0.8951940536499023,0.4468545913696289,0
0.8949514389038086,0.4458395004272461,0
0.8944192886352539,0.4458395004272461,0
0.8947774887084960,0.4452993392944336,0
0.8942911148071289,0.4452993392944336,0
0.8936141967773438,0.4447019577026367,0
0.8933074951171874,0.4447019577026367,0
0.8925790786743164,0.4435752868652343,0
0.8921178817749024,0.4435752868652343,0
0.8914867401123047,0.4432073593139648,0
0.8903841018676758,0.4432073593139648,0
0.8893489837646484,0.4410387039184570,0
0.8882549285888671,0.4410387039184570,0
0.8880901336669922,0.4396156311035156,0
0.8871654510498047,0.4396425247192383,0
0.8856714248657226,0.4379070281982422,0
0.8853979110717773,0.4379070281982422,0
0.8849361419677734,0.4373914718627930,0
0.8849361419677734,0.4378732681274414,0
0.8847925186157226,0.4373308181762695,0
0.8851072311401367,0.4377696990966797,0
0.8859580993652344,0.4388505935668945,0
0.8862110137939453,0.4388505935668945,0
0.8869194030761719,0.4389575958251953,0
0.8871728897094726,0.4390445709228515,0
0.8883110046386719,0.4408441543579101,0
0.8886554718017577,0.4408647537231445,0
0.8895915985107422,0.4415925979614257,0
0.8903526306152344,0.4411909103393555,0
0.8909236907958984,0.4428920745849609,0
0.8909345626831054,0.4426162719726562,0
0.8917316436767578,0.4428497314453125,0
0.8921344757080077,0.4428497314453125,0
0.8926025390625000,0.4442539215087891,0
0.8930786132812499,0.4439701080322265,0
0.8929378509521484,0.4438190460205078,0
0.8932411193847656,0.4449588775634766,0
0.8930997848510742,0.4446372985839844,0
0.8932954788208007,0.4446985244750977,0
0.8935472488403320,0.4442367553710938,0
0.8937709808349609,0.4452552795410156,0
0.8943157196044922,0.4451368331909180,0
0.8944919586181640,0.4450487136840820,0
0.8946538925170898,0.4454710006713867,0
0.8947557449340821,0.4458269119262695,0
0.8947443008422852,0.4458269119262695,0
0.8955322265625000,0.4457078933715820,0
0.8955322265625000,0.4461587905883789,0
0.8960432052612305,0.4465095520019531,0
0.8957004547119141,0.4463979721069336,0
0.8962285995483398,0.4466159820556641,0
0.8960483551025390,0.4466159820556641,0
0.8957908630371093,0.4464637756347656,0
0.8956014633178710,0.4465856552124023,0
0.8960237503051758,0.4466131210327148,0
0.8958984375000000,0.4472414016723633,0
0.8958217620849609,0.4465953826904297,0
0.8958572387695313,0.4467830657958984,0
0.8960666656494141,0.4472768783569336,0
0.8959762573242187,0.4473947525024414,0
0.8961839675903320,0.4469810485839844,0
0.8963802337646484,0.4469100952148438,0
0.8969341278076172,0.4482130050659179,0
0.8970726013183593,0.4479875564575195,0
0.8974514007568359,0.4478107452392578,0
0.8974514007568359,0.4476242065429688,0
0.8976648330688476,0.4487646102905273,0
0.8976202011108398,0.4483743667602539,0
0.8974685668945312,0.4483028411865234,0
0.8974685668945312,0.4478090286254883,0
0.8976705551147460,0.4488098144531250,0
0.8975790023803710,0.4484476089477539,0
0.8975784301757812,0.4483966827392578,0
0.8977083206176758,0.4479457855224609,0
0.8977552413940429,0.4490924835205078,0
0.8977346420288086,0.4486724853515625,0
0.8977237701416015,0.4485900878906250,0
0.8977237701416015,0.4481185913085937,0
0.8977151870727539,0.4490375518798828,0
0.8974554061889648,0.4485425949096680,0
0.8973112106323242,0.4483469009399414,0
0.8972797393798828,0.4478485107421875,0
0.8971498489379882,0.4487869262695313,0
0.8969833374023437,0.4482856750488281,0
0.8968626022338867,0.4481552124023437,0
0.8970211029052734,0.4476665496826172,0
0.8985202789306640,0.4498334884643554,0
0.8985717773437499,0.4492298126220703,0
0.8984161376953125,0.4488561630249023,0
0.8986347198486327,0.4488561630249023,0
0.8990203857421875,0.4502248764038086,0
0.8991096496582031,0.4498403549194336,0
0.8995742797851562,0.4501579284667969,0
0.8997087478637695,0.4496732711791992,0
0.8999570846557617,0.4505567550659180,0
0.9002202987670898,0.4513303756713867,0
0.8997951507568359,0.4499799728393555,0
0.8996315002441406,0.4505516052246094,0
0.8992876052856446,0.4498981475830078,0
0.8985569000244140,0.4489992141723633,0
0.8978044509887695,0.4485208511352539,0
0.8969352722167968,0.4480173110961914,0
0.8955442428588867,0.4465473175048828,0
0.8927787780761719,0.4441663742065430,0
0.8927787780761719,0.4437046051025391,0
0.8904041290283203,0.4429578781127930,0
0.8901060104370117,0.4424308776855468,0
0.8881261825561523,0.4403572082519531,0
0.8881193161010742,0.4411897659301758,0
0.8879407882690430,0.4406999588012695,0
0.8886995315551758,0.4413099288940430,0
0.8886995315551758,0.4408103942871094,0
0.8902610778808594,0.4429567337036133,0
0.8909809112548828,0.4431798934936523,0
0.8922180175781250,0.4438344955444336,0
0.8925373077392578,0.4433189392089844,0
0.8932519912719726,0.4454051971435547,0
0.8937383651733398,0.4454561233520508,0
0.8946882247924804,0.4461261749267578,0
0.8950721740722656,0.4455780029296875,0
0.8953273773193359,0.4469982147216797,0
0.8951986312866210,0.4466526031494141,0
0.8951477050781250,0.4465690612792969,0
0.8952381134033203,0.4460340499877929,0
0.8952569961547852,0.4472476959228516,0
0.8953651428222656,0.4468889236450195,0
0.8958795547485351,0.4474124908447266,0
0.8962463378906250,0.4468791961669922,0
0.8969484329223633,0.4484693527221680,0
0.8970170974731445,0.4483943939208984,0
0.8975852966308594,0.4486936569213867,0
0.8979492187500000,0.4481414794921875,0
0.8983983993530273,0.4496480941772461,0
0.8985282897949218,0.4493785858154297,0
0.8990833282470703,0.4499582290649414,0
0.8994684219360352,0.4493528366088867,0
0.9001396179199218,0.4509916305541992,0
0.9001779556274414,0.4507467269897460,0
0.9007421493530273,0.4511529922485351,0
0.9009183883666991,0.4506425857543945,0
0.9008440017700194,0.4518384933471680,0
0.9009607315063476,0.4512634277343750,0
0.9005556106567383,0.4509590148925781,0
0.9002614974975586,0.4504154205322266,0
0.8997247695922851,0.4511152267456054,0
0.8998271942138671,0.4504486083984375,0
0.8994644165039062,0.4502580642700195,0
0.8994438171386718,0.4497081756591797,0
0.8997058868408203,0.4509378433227539,0
0.8997985839843750,0.4505659103393554,0
0.9004068374633789,0.4510883331298828,0
0.9007209777832030,0.4505550384521484,0
0.9015031814575195,0.4522550582885742,0
0.9015489578247070,0.4520410537719726,0
0.9021131515502929,0.4524284362792969,0
0.9023214340209961,0.4518871307373047,0
0.9024021148681640,0.4532747268676758,0
0.9025400161743163,0.4529829025268555,0
0.9026241302490234,0.4529067993164062,0
0.9026618957519531,0.4523523330688476,0
0.9028203964233398,0.4535648345947265,0
0.9028776168823242,0.4532260894775391,0
0.9029674530029297,0.4532512664794922,0
0.9030538558959961,0.4526916503906250,0
0.9030881881713867,0.4539018630981445,0
0.9032363891601562,0.4534555435180664,0
0.9032329559326171,0.4529663085937500,0
0.9033096313476562,0.4529245376586914,0
0.9033536911010742,0.4538257598876953,0
0.9034269332885742,0.4535791397094726,0
0.9034915924072265,0.4533004760742188,0
0.9038543701171875,0.4546216964721679,0
0.9039218902587890,0.4546216964721679,0
0.9044368743896484,0.4544546127319335,0
0.9045473098754883,0.4544546127319335,0
0.9051052093505859,0.4549295425415039,0
0.9055080413818359,0.4549295425415039,0
0.9057260513305664,0.4556476593017578,0
0.9063348770141602,0.4556476593017578,0
0.9062255859374999,0.4554925918579101,0
0.9059995651245116,0.4554925918579101,0
0.9054788589477538,0.4561517715454101,0
0.9056900024414062,0.4561517715454101,0
0.9061100006103515,0.4558439254760742,0
0.9059635162353515,0.4558439254760742,0
0.9062719345092773,0.4559452056884765,0
0.9064006805419922,0.4559452056884765,0
0.9061225891113280,0.4560476303100586,0
0.9063743591308593,0.4560476303100586,0
0.9058490753173828,0.4552625656127929,0
0.9056791305541991,0.4552625656127929,0
0.9056350708007812,0.4561511993408203,0
0.9052442550659179,0.4561511993408203,0
0.9053787231445312,0.4551612854003906,0
0.9049123764038085,0.4551612854003906,0
0.9047824859619140,0.4547332763671875,0
0.9045713424682617,0.4547332763671875,0
0.9041152954101562,0.4544219970703125,0
0.9041204452514648,0.4544219970703125,0
0.9034618377685546,0.4531745910644531,0
0.9029657363891601,0.4531745910644531,0
0.9025503158569336,0.4534429550170898,0
0.9017246246337890,0.4534429550170898,0
0.9014236450195312,0.4516920089721679,0
0.9004709243774414,0.4516920089721679,0
0.9000194549560546,0.4506242752075195,0
0.8995731353759765,0.4506242752075195,0
0.8989963531494141,0.4500148773193359,0
0.8989603042602539,0.4500148773193359,0
0.8983200073242187,0.4488739013671875,0
0.8980224609374999,0.4488739013671875,0
0.8978513717651367,0.4496721267700195,0
0.8976345062255859,0.4496721267700195,0
0.8978044509887695,0.4489648818969726,0
0.8976104736328124,0.4489648818969726,0
0.8977718353271484,0.4490346908569336,0
0.8979732513427734,0.4490346908569336,0
0.8979955673217773,0.4495405197143554,0
0.8986427307128906,0.4495405197143554,0
0.8985202789306640,0.4494461059570312,0
0.8987892150878906,0.4494461059570312,0
0.8991468429565429,0.4510740280151367,0
0.8992876052856446,0.4510740280151367,0
0.8998283386230469,0.4508274078369141,0
0.8998014450073242,0.4508274078369141,0
0.9001178741455078,0.4511775970458984,0
0.9004726409912109,0.4511775970458984,0
0.9004566192626953,0.4516387939453125,0
0.9011169433593750,0.4516387939453125,0
0.9009321212768554,0.4513933181762695,0
0.9010437011718749,0.4513933181762695,0
0.9012577056884765,0.4527528762817383,0
0.9012943267822265,0.4527528762817383,0
0.9018367767333983,0.4524227142333984,0
0.9018064498901367,0.4524227142333984,0
0.9020679473876952,0.4527128219604492,0
0.9023580551147461,0.4527128219604492,0
0.9024370193481445,0.4532381057739258,0
0.9030172348022460,0.4532381057739258,0
0.9027385711669922,0.4529542922973633,0
0.9026636123657226,0.4529542922973633,0
0.9029130935668945,0.4541702270507812,0
0.9028324127197265,0.4541702270507812,0
0.9033010482788085,0.4536878585815429,0
0.9030601501464843,0.4536878585815429,0
0.9031076431274414,0.4536432266235351,0
0.9030773162841796,0.4536432266235351,0
0.9028495788574218,0.4536460876464843,0
0.9031717300415039,0.4536460876464843,0
0.9027145385742187,0.4531087875366211,0
0.9027774810791015,0.4531087875366211,0
0.9029474258422852,0.4544202804565429,0
0.9031539916992187,0.4544202804565429,0
0.9038166046142577,0.4542005538940430,0
0.9037542343139648,0.4542005538940430,0
0.9041370391845702,0.4544815063476562,0
0.9043727874755859,0.4544815063476562,0
0.9043453216552734,0.4549409866333007,0
0.9049947738647460,0.4549409866333007,0
0.9047109603881835,0.4544557571411132,0
0.9046331405639648,0.4544557571411132,0
0.9045272827148437,0.4554885864257812,0
0.9043584823608398,0.4554885864257812,0
0.9046199798583984,0.4547018051147461,0
0.9041152954101562,0.4547018051147461,0
0.9040546417236328,0.4544425964355469,0
0.9039808273315429,0.4544425964355469,0
0.9035533905029296,0.4543985366821289,0
0.9037696838378906,0.4543985366821289,0
0.9032999038696289,0.4536952972412109,0
0.9031225204467773,0.4536952972412109,0
0.9032678604125977,0.4547332763671875,0
0.9032678604125977,0.4543344497680664,0
0.9038000106811523,0.4543344497680664,0
0.9035350799560546,0.4546445846557617,0
0.9037748336791992,0.4546279907226562,0
0.9040540695190429,0.4546279907226562,0
0.9040929794311523,0.4550125122070312,0
0.9047029495239257,0.4550125122070312,0
0.9042783737182617,0.4545885086059570,0
0.9042486190795898,0.4545885086059570,0
0.9043647766113281,0.4557575225830078,0
0.9042875289916992,0.4557575225830078,0
0.9048019409179687,0.4552825927734375,0
0.9044614791870117,0.4552825927734375,0
0.9045925140380859,0.4552894592285156,0
0.9047767639160156,0.4552894592285156,0
0.9046194076538085,0.4555921554565430,0
0.9050474166870117,0.4555921554565430,0
0.9046394348144531,0.4550897598266601,0
0.9046463012695312,0.4550897598266601,0
0.9048065185546874,0.4563869476318359,0
0.9048648834228515,0.4563869476318359,0
0.9055000305175781,0.4560321807861328,0
0.9053112030029297,0.4560321807861328,0
0.9056751251220703,0.4563131332397461,0
0.9060104370117187,0.4563131332397461,0
0.9059005737304687,0.4567245483398437,0
0.9065311431884765,0.4567245483398437,0
0.9061803817749023,0.4562891006469726,0
0.9062313079833983,0.4562891006469726,0
0.9062204360961914,0.4574884414672851,0
0.9062135696411132,0.4574884414672851,0
0.9067720413208007,0.4570604324340820,0
0.9064853668212890,0.4570604324340820,0
0.9065786361694336,0.4570655822753906,0
0.9066793441772460,0.4570655822753906,0
0.9063772201538085,0.4571285247802734,0
0.9066244125366211,0.4571285247802734,0
0.9059852600097655,0.4562564849853515,0
0.9056344985961914,0.4562564849853515,0
0.9054113388061523,0.4569602966308594,0
0.9052259445190429,0.4569602966308594,0
0.9052883148193359,0.4558954238891602,0
0.9045667648315430,0.4558954238891602,0
0.9042783737182617,0.4552494049072265,0
0.9039590835571288,0.4552494049072265,0
0.9034360885620116,0.4547618865966797,0
0.9033245086669921,0.4547618865966797,0
0.9024919509887694,0.4533874511718750,0
0.9018962860107421,0.4533874511718750,0
0.9026384353637695,0.4544065475463867,0
0.9017789840698242,0.4544065475463867,0
0.9014722824096679,0.4527528762817383,0
0.9009767532348633,0.4527528762817383,0
0.9004961013793945,0.4519266128540039,0
0.8999708175659179,0.4519266128540039,0
0.8994884490966797,0.4514991760253906,0
0.8998460769653320,0.4514991760253906,0
0.8992601394653320,0.4507141113281250,0
0.8990198135375976,0.4507141113281250,0
0.8990404129028320,0.4517566680908203,0
0.8991027832031250,0.4517566680908203,0
0.8997831344604492,0.4514699935913086,0
0.8997711181640625,0.4514699935913086,0
0.9000337600708007,0.4518819808959961,0
0.9004617691040039,0.4518819808959961,0
0.9005544662475585,0.4526384353637695,0
0.9013349533081054,0.4526384353637695,0
0.9012210845947265,0.4523677825927734,0
0.9012765884399414,0.4523677825927734,0
0.9014711380004883,0.4537582397460938,0
0.9015398025512695,0.4537582397460938,0
0.9023099899291992,0.4534858703613281,0
0.9021074295043945,0.4534858703613281,0
0.9022584915161133,0.4538171768188476,0
0.9027145385742187,0.4538171768188476,0
0.9027488708496093,0.4543521881103516,0
0.9034709930419922,0.4543521881103516,0
0.9031871795654296,0.4541393280029297,0
0.9032884597778320,0.4541393280029297,0
0.9034881591796875,0.4554313659667968,0
0.9035093307495117,0.4554313659667968,0
0.9041702270507812,0.4551126480102539,0
0.9038961410522460,0.4551126480102539,0
0.9039224624633788,0.4551864624023437,0
0.9040723800659179,0.4551864624023437,0
0.9038257598876953,0.4552396774291992,0
0.9042034149169922,0.4552396774291992,0
0.9035991668701171,0.4546176910400390,0
0.9033010482788085,0.4546176910400390,0
0.9033096313476562,0.4555446624755859,0
0.9041318893432617,0.4555446624755859,0
0.9051223754882812,0.4556556701660156,0
0.9044225692749023,0.4556556701660156,0
0.9041845321655273,0.4552968978881836,0
0.9042125701904297,0.4552968978881836,0
0.9044374465942382,0.4552677154541016,0
0.9039075851440429,0.4553712844848632,0
0.9036712646484375,0.4551017761230469,0
0.9036712646484375,0.4556030273437500,0
0.9036443710327148,0.4552368164062500,0
0.9041536331176757,0.4550691604614258,0
0.9041536331176757,0.4551183700561523,0
0.9037090301513672,0.4550033569335937,0
0.9038795471191405,0.4550033569335937,0
0.9037914276123047,0.4551961898803711,0
0.9041593551635742,0.4551961898803711,0
0.9036849975585937,0.4545724868774414,0
0.9034126281738281,0.4545724868774414,0
0.9033662796020507,0.4553781509399414,0
0.9032684326171875,0.4553781509399414,0
0.9038949966430664,0.4548780441284179,0
0.9035739898681641,0.4548780441284179,0
0.9036043167114257,0.4549993515014648,0
0.9038955688476562,0.4549993515014648,0
0.9036924362182617,0.4552076339721680,0
0.9043727874755859,0.4552076339721680,0
0.9039859771728516,0.4549192428588867,0
0.9040122985839844,0.4549192428588867,0
0.9041707992553710,0.4560121536254882,0
0.9042812347412109,0.4560121536254882,0
0.9050199508666992,0.4557884216308594,0
0.9048494338989257,0.4557884216308594,0
0.9049707412719726,0.4559520721435547,0
0.9051675796508789,0.4559520721435547,0
0.9050594329833984,0.4562358856201172,0
0.9055658340454101,0.4562358856201172,0
0.9051572799682617,0.4557191848754882,0
0.9047939300537109,0.4557191848754882,0
0.9046199798583984,0.4563423156738281,0
0.9042863845825195,0.4563423156738281,0
0.9047183990478516,0.4556310653686523,0
0.9040838241577148,0.4556310653686523,0
0.9039339065551757,0.4555109024047851,0
0.9048751831054687,0.4555109024047851,0
0.9052780151367187,0.4564693450927734,0
0.9057128906249999,0.4564693450927734,0
0.9050628662109375,0.4559137344360351,0
0.9050914764404296,0.4559137344360351,0
0.9052728652954101,0.4571428298950195,0
0.9055429458618164,0.4571428298950195,0
0.9065082550048827,0.4570558547973633,0
0.9063022613525390,0.4570558547973633,0
0.9064373016357421,0.4572509765625000,0
0.9066164016723632,0.4572509765625000,0
0.9064029693603515,0.4572624206542968,0
0.9066902160644531,0.4572624206542968,0
0.9058862686157226,0.4561861038208008,0
0.9051000595092773,0.4561861038208008,0
0.9042955398559570,0.4556430816650390,0
0.9028787612915039,0.4556430816650390,0
0.9021726608276367,0.4527362823486328,0
0.9000028610229491,0.4527362823486328,0
0.8978422164916992,0.4490861892700195,0
0.8951013565063476,0.4490861892700195,0
0.8917974472045899,0.4440250396728516,0
0.8888162612915039,0.4440250396728516,0
0.8850185394287109,0.4378618240356445,0
0.8817958831787109,0.4378618240356445,0
0.8803630828857422,0.4349945068359375,0
0.8779140472412109,0.4349945068359375,0
0.8767936706542968,0.4315366744995117,0
0.8752389907836914,0.4315366744995117,0
0.8746089935302734,0.4303602218627929,0
0.8745929718017578,0.4303602218627929,0
0.8746112823486328,0.4306354522705078,0
0.8755611419677735,0.4306354522705078,0
0.8758043289184571,0.4310714721679688,0
0.8763719558715820,0.4310714721679688,0
0.8771347045898438,0.4331302642822266,0
0.8781017303466797,0.4331302642822266,0
0.8796180725097656,0.4341865539550781,0
0.8802343368530273,0.4341865539550781,0
0.8810256958007813,0.4355644226074218,0
0.8820653915405273,0.4355644226074218,0
0.8826004028320312,0.4370155334472656,0
0.8838626861572265,0.4370155334472656,0
0.8840034484863281,0.4377262115478516,0
0.8845619201660156,0.4377262115478516,0
0.8851833343505859,0.4396814346313476,0
0.8858379364013672,0.4396814346313476,0
0.8872037887573242,0.4403715133666992,0
0.8875476837158203,0.4403715133666992,0
0.8880340576171875,0.4414392471313476,0
0.8889833450317383,0.4414392471313476,0
0.8894657135009766,0.4428977966308594,0
0.8907251358032227,0.4428977966308594,0
0.8910140991210938,0.4437194824218750,0
0.8916212081909179,0.4437194824218750,0
0.8923233032226562,0.4457714080810547,0
0.8930374145507812,0.4457714080810547,0
0.8944873809814453,0.4466382980346680,0
0.8948701858520508,0.4466382980346680,0
0.8953268051147460,0.4477003097534180,0
0.8962165832519531,0.4477003097534180,0
0.8965576171874999,0.4488842010498047,0
0.8976150512695312,0.4488842010498047,0
0.8976058959960938,0.4492177963256836,0
0.8979211807250976,0.4492177963256836,0
0.8983177185058594,0.4507169723510742,0
0.8986192703247070,0.4507169723510742,0
0.8996355056762695,0.4508760452270508,0
0.8995147705078125,0.4508760452270508,0
0.8996927261352539,0.4512742996215820,0
0.9000125885009765,0.4512742996215820,0
0.8998620986938476,0.4516267776489258,0
0.9004405975341796,0.4516267776489258,0
0.8998878479003906,0.4511301040649414,0
0.8996280670166016,0.4511301040649414,0
0.8994163513183594,0.4517652511596679,0
0.8992029190063476,0.4517652511596679,0
0.8998683929443360,0.4511323928833008,0
0.8993413925170898,0.4511323928833008,0
0.8990627288818359,0.4510477066040039,0
0.8991617202758789,0.4510477066040039,0
0.8990495681762695,0.4513298034667969,0
0.8996973037719727,0.4513298034667969,0
0.8993991851806641,0.4510940551757812,0
0.8993659973144531,0.4510940551757812,0
0.8994752883911132,0.4521869659423828,0
0.8995862960815429,0.4521869659423828,0
0.9006008148193358,0.4519695281982422,0
0.9002065658569336,0.4519695281982422,0
0.9001985549926758,0.4521303176879883,0
0.9003650665283203,0.4521303176879883,0
0.9002185821533203,0.4523580551147461,0
0.9007896423339843,0.4523580551147461,0
0.9001888275146483,0.4518590927124023,0
0.9001041412353515,0.4518590927124023,0
0.8999147415161133,0.4528015136718750,0
0.8999845504760742,0.4528015136718750,0
0.9008903503417969,0.4525548934936523,0
0.9006866455078124,0.4525548934936523,0
0.9006803512573242,0.4528570175170898,0
0.9009733200073242,0.4528570175170898,0
0.9011501312255858,0.4533205032348633,0
0.9018636703491211,0.4533205032348633,0
0.9015071868896484,0.4531574249267578,0
0.9014808654785156,0.4531574249267578,0
0.9014802932739258,0.4540483474731445,0
0.9015409469604492,0.4540483474731445,0
0.9023363113403320,0.4538320541381836,0
0.9019741058349608,0.4538320541381836,0
0.9018453598022460,0.4538709640502929,0
0.9020982742309570,0.4538709640502929,0
0.9020072937011718,0.4541702270507812,0
0.9026584625244141,0.4541702270507812,0
0.9022327423095703,0.4538967132568359,0
0.9021125793457031,0.4538967132568359,0
0.9022390365600585,0.4548351287841796,0
0.9023523330688477,0.4548351287841796,0
0.9033885955810547,0.4547447204589843,0
0.9031248092651367,0.4547447204589843,0
0.9030532836914062,0.4549781799316406,0
0.9033565521240234,0.4549781799316406,0
0.9033004760742187,0.4552900314331054,0
0.9038589477539062,0.4552900314331054,0
0.9033685684204101,0.4547836303710937,0
0.9029926300048827,0.4547836303710937,0
0.9028226852416992,0.4552408218383789,0
0.9024936676025390,0.4552408218383789,0
0.9030069351196288,0.4544202804565429,0
0.9021909713745117,0.4544202804565429,0
0.9015409469604492,0.4537055969238281,0
0.9011598587036133,0.4537055969238281,0
0.9004171371459960,0.4528141021728516,0
0.9001287460327148,0.4528141021728516,0
0.8987651824951172,0.4509315490722656,0
0.8976282119750977,0.4509315490722656,0
0.8966514587402343,0.4499691009521484,0
0.8956249237060546,0.4499691009521484,0
0.8954475402832031,0.4477792739868164,0
0.8938613891601562,0.4477792739868164,0
0.8926883697509765,0.4457405090332031,0
0.8918071746826172,0.4457405090332031,0
0.8909053802490234,0.4445062637329101,0
0.8908086776733398,0.4445062637329101,0
0.8899423599243164,0.4434270858764648,0
0.8895721435546875,0.4434270858764648,0
0.8895401000976563,0.4440856933593750,0
0.8895893096923828,0.4440856933593750,0
0.8906759262084961,0.4441926956176758,0
0.8905609130859374,0.4441926956176758,0
0.8908246994018555,0.4447551727294922,0
0.8914312362670899,0.4447551727294922,0
0.8918008804321289,0.4457319259643555,0
0.8929138183593750,0.4457319259643555,0
0.8929206848144531,0.4462629318237304,0
0.8933280944824219,0.4462629318237304,0
0.8936519622802734,0.4478713989257813,0
0.8942316055297851,0.4478713989257813,0
0.8956312179565430,0.4484235763549805,0
0.8957696914672851,0.4484235763549805,0
0.8960174560546875,0.4492355346679687,0
0.8967006683349609,0.4492355346679687,0
0.8970027923583984,0.4502174377441406,0
0.8980024337768554,0.4502174377441406,0
0.8978210449218750,0.4504337310791016,0
0.8980201721191406,0.4504337310791016,0
0.8981237411499023,0.4515380859375000,0
0.8983200073242187,0.4515380859375000,0
0.8994661331176758,0.4516874313354492,0
0.8992446899414063,0.4516874313354492,0
0.8991680145263672,0.4520341873168945,0
0.8995113372802734,0.4520341873168945,0
0.8994529724121093,0.4524221420288086,0
0.9000280380249023,0.4524221420288086,0
0.8996320724487304,0.4521537780761719,0
0.8994981765747070,0.4521537780761719,0
0.8994489669799804,0.4529142379760742,0
0.8994466781616210,0.4529142379760742,0
0.9003787994384765,0.4527076721191406,0
0.8998907089233398,0.4527076721191406,0
0.8997287750244141,0.4527477264404297,0
0.8999565124511718,0.4527477264404297,0
0.8999027252197266,0.4530235290527344,0
0.9005086898803710,0.4530235290527344,0
0.9000532150268554,0.4527912139892578,0
0.8999393463134765,0.4527912139892578,0
0.8999570846557617,0.4535802841186523,0
0.9001029968261718,0.4535802841186523,0
0.9011684417724609,0.4534927368164062,0
0.9008674621582031,0.4534927368164062,0
0.9007982254028319,0.4536769866943359,0
0.9011077880859375,0.4536769866943359,0
0.9011243820190429,0.4540620803833008,0
0.9017864227294922,0.4540620803833008,0
0.9013956069946288,0.4538051605224609,0
0.9013967514038086,0.4541101455688477,0
0.9013893127441406,0.4543676376342773,0
0.9020719528198242,0.4543676376342773,0
0.9012519836425781,0.4540494918823242,0
0.9013778686523437,0.4541833877563476,0
0.9016662597656250,0.4543905258178711,0
0.9017349243164062,0.4541530609130859,0
0.9008977890014648,0.4541175842285156,0
0.9005710601806640,0.4541175842285156,0
0.9013149261474609,0.4543310165405273,0
0.9024730682373047,0.4543745040893554,0
0.9025960922241211,0.4552717208862305,0
0.9022064208984375,0.4555812835693359,0
0.9032426834106445,0.4555492401123047,0
0.9028598785400390,0.4555492401123047,0
0.9026155471801758,0.4558130264282226,0
0.9026212692260742,0.4560276031494140,0
0.9036689758300781,0.4559446334838867,0
0.9031757354736327,0.4562942504882812,0
0.9031225204467773,0.4565202713012695,0
0.9031408309936523,0.4565202713012695,0
0.9036764144897460,0.4565889358520507,0
0.9034938812255859,0.4561494827270507,0
0.9033525466918945,0.4568098068237305,0
0.9036563873291015,0.4566530227661132,0
0.9037965774536132,0.4564596176147461,0
0.9036878585815429,0.4564596176147461,0
0.9038692474365234,0.4571062088012695,0
0.9038692474365234,0.4570346832275390,0
0.9041759490966796,0.4568687438964844,0
0.9042898178100586,0.4572223663330078,0
0.9045948028564452,0.4577653884887695,0
0.9053300857543944,0.4576354980468750,0
0.9050783157348632,0.4575777053833008,0
0.9050783157348632,0.4578701019287109,0
0.9053529739379882,0.4581933975219726,0
0.9062587738037109,0.4581642150878906,0
0.9056121826171875,0.4580377578735351,0
0.9058404922485351,0.4583662033081055,0
0.9061546325683594,0.4584165573120117,0
0.9061969757080077,0.4582025527954101,0
0.9050685882568359,0.4578363418579101,0
0.9046714782714843,0.4579347610473632,0
0.9049701690673828,0.4569093704223632,0
0.9040809631347656,0.4570667266845703,0
0.9031087875366210,0.4563766479492187,0
0.9027294158935546,0.4561437606811523,0
0.9022378921508789,0.4544088363647460,0
0.9005813598632812,0.4536975860595703,0
0.8981283187866210,0.4517841339111328,0
0.8965478897094726,0.4495920181274414,0
0.8936302185058593,0.4476224899291992,0
0.8931255340576172,0.4472534179687500,0
0.8935111999511719,0.4475028991699219,0
0.8948953628540038,0.4482719421386719,0
0.8949497222900390,0.4484264373779297,0
0.8950304031372071,0.4488939285278320,0
0.8956232070922852,0.4491640090942383,0
0.8958011627197265,0.4499811172485351,0
0.8968751907348632,0.4501075744628906,0
0.8968002319335937,0.4504394531250000,0
0.8973524093627929,0.4506694793701171,0
0.8974033355712890,0.4513492584228516,0
0.8983188629150390,0.4514860153198242,0
0.8980985641479492,0.4516777038574218,0
0.8980985641479492,0.4519289016723633,0
0.8986450195312500,0.4524919509887695,0
0.8994901657104492,0.4525508880615234,0
0.8990112304687500,0.4525869369506836,0
0.8993774414062500,0.4528627395629883,0
0.9000097274780273,0.4532781600952148,0
0.9000938415527343,0.4532661437988281,0
0.8995330810546874,0.4531356811523437,0
0.8998443603515625,0.4533966064453125,0
0.8998723983764648,0.4538801193237305,0
0.9006900787353516,0.4538663864135742,0
0.9003210067749023,0.4539024353027343,0
0.9007221221923828,0.4541627883911132,0
0.9008222579956054,0.4545867919921875,0
0.9016542434692383,0.4546182632446289,0
0.9013212203979492,0.4546417236328125,0
0.9016553878784179,0.4549215316772461,0
0.9016639709472656,0.4553043365478515,0
0.9024295806884766,0.4552082061767578,0
0.9018785476684570,0.4551515579223633,0
0.9021337509155273,0.4553998947143554,0
0.9020822525024413,0.4556173324584961,0
0.9028570175170898,0.4554840087890625,0
0.9022619247436523,0.4554771423339843,0
0.9022619247436523,0.4557271957397461,0
0.9026727676391602,0.4561311721801757,0
0.9034852981567383,0.4561529159545898,0
0.9031379699707031,0.4562004089355469,0
0.9035568237304688,0.4564533233642578,0
0.9035453796386719,0.4568693161010742,0
0.9044866561889648,0.4568201065063476,0
0.9039642333984375,0.4569311141967773,0
0.9043785095214844,0.4571674346923828,0
0.9044294357299805,0.4576480865478516,0
0.9054016113281249,0.4576789855957031,0
0.9050720214843749,0.4578752517700195,0
0.9055103302001952,0.4581024169921875,0
0.9056047439575194,0.4586471557617187,0
0.9065420150756835,0.4586454391479492,0
0.9062959671020507,0.4587163925170898,0
0.9066976547241210,0.4589939117431641,0
0.9067640304565430,0.4595249176025391,0
0.9076549530029296,0.4595386505126953,0
0.9073356628417968,0.4596805572509766,0
0.9077699661254882,0.4599243164062500,0
0.9077693939208984,0.4603963851928711,0
0.9086889266967773,0.4603614807128906,0
0.9081750869750976,0.4604221343994140,0
0.9085630416870116,0.4606962203979492,0
0.9086626052856445,0.4611940383911133,0
0.9095312118530273,0.4612346649169922,0
0.9093011856079101,0.4613513946533203,0
0.9095775604248046,0.4615842819213867,0
0.9101211547851562,0.4620191574096679,0
0.9102939605712890,0.4615568161010742,0
0.9092554092407226,0.4614601135253906,0
0.9096696853637695,0.4616998672485351,0
0.9097475051879882,0.4621370315551758,0
0.9098630905151367,0.4621370315551758,0
0.9099386215209960,0.4622056961059570,0
0.9100187301635742,0.4625776290893555,0
0.9105875015258789,0.4623830795288086,0
0.9098711013793945,0.4621891021728515,0
0.9099248886108398,0.4622291564941406,0
0.9096450805664062,0.4621868133544922,0
0.9098516464233398,0.4620460510253906,0
0.9085756301879883,0.4614543914794922,0
0.9086740493774413,0.4611368179321289,0
0.9077762603759765,0.4603414535522461,0
0.9075107574462891,0.4603414535522461,0
0.9050622940063476,0.4587038040161133,0
0.9051647186279297,0.4579399108886719,0
0.9029708862304687,0.4560218811035156,0
0.9021280288696288,0.4560218811035156,0
0.8983663558959961,0.4532867431640625,0
0.8985002517700195,0.4520490646362305,0
0.8959196090698242,0.4499874114990234,0
0.8954235076904297,0.4499874114990234,0
0.8936399459838867,0.4485574722290039,0
0.8937372207641602,0.4482393264770508,0
0.8933921813964844,0.4482633590698242,0
0.8939878463745117,0.4482633590698242,0
0.8937377929687500,0.4483554840087891,0
0.8938133239746093,0.4486358642578125,0
0.8945114135742187,0.4495021820068359,0
0.8954898834228515,0.4493471145629883,0
0.8955596923828125,0.4498323440551757,0
0.8956209182739258,0.4502243041992187,0
0.8965118408203124,0.4511753082275390,0
0.8976379394531250,0.4514419555664062,0
0.8977460861206055,0.4519838333129882,0
0.8979171752929688,0.4527008056640625,0
0.8997625350952149,0.4530269622802734,0
0.8997287750244141,0.4535224914550781,0
0.8997756958007812,0.4539442062377930,0
0.9005258560180663,0.4548505783081054,0
0.9005258560180663,0.4547481536865234,0
0.9012474060058593,0.4550971984863281,0
0.9012004852294921,0.4550971984863281,0
0.9011306762695312,0.4556573867797851,0
0.9012908935546875,0.4556573867797851,0
0.9025966644287109,0.4557638168334961,0
0.9022590637207031,0.4557638168334961,0
0.9021806716918945,0.4560676574707031,0
0.9025651931762695,0.4560676574707031,0
0.9024650573730468,0.4564716339111328,0
0.9031929016113280,0.4564716339111328,0
0.9029371261596679,0.4565803527832031,0
0.9028226852416992,0.4565803527832031,0
0.9027105331420898,0.4570341110229492,0
0.9028141021728515,0.4570341110229492,0
0.9039133071899413,0.4570518493652344,0
0.9036684036254883,0.4570518493652344,0
0.9034114837646484,0.4572080612182617,0
0.9032226562500000,0.4572080612182617,0
0.9036317825317383,0.4574174880981445,0
0.9041885375976562,0.4574174880981445,0
0.9039270401000976,0.4575536727905273,0
0.9037399291992188,0.4575536727905273,0
0.9036455154418945,0.4579015731811523,0
0.9037136077880858,0.4579015731811523,0
0.9049020767211914,0.4579267501831055,0
0.9046491622924804,0.4579267501831055,0
0.9044757843017578,0.4581121444702148,0
0.9048225402832031,0.4581121444702148,0
0.9047498703002930,0.4585000991821289,0
0.9054439544677734,0.4585000991821289,0
0.9051921844482421,0.4585973739624023,0
0.9051452636718750,0.4585973739624023,0
0.9049226760864257,0.4589618682861328,0
0.9050565719604492,0.4589618682861328,0
0.9061357498168945,0.4590087890625000,0
0.9058433532714844,0.4590087890625000,0
0.9056968688964844,0.4591444015502930,0
0.9059412002563476,0.4591444015502930,0
0.9058691024780273,0.4595134735107422,0
0.9065042495727539,0.4595134735107422,0
0.9062507629394531,0.4596130371093750,0
0.9061351776123047,0.4596130371093750,0
0.9059841156005859,0.4599517822265625,0
0.9060533523559570,0.4599517822265625,0
0.9072504043579102,0.4600193023681640,0
0.9069963455200195,0.4600193023681640,0
0.9068218231201172,0.4602481842041015,0
0.9071399688720703,0.4602481842041015,0
0.9071250915527344,0.4605937957763672,0
0.9077957153320312,0.4605937957763672,0
0.9075937271118164,0.4607694625854492,0
0.9074140548706054,0.4607694625854492,0
0.9072463989257812,0.4611785888671875,0
0.9073282241821289,0.4611785888671875,0
0.9085401535034179,0.4611865997314453,0
0.9082838058471679,0.4611865997314453,0
0.9079862594604492,0.4613273620605469,0
0.9082740783691405,0.4613273620605469,0
0.9081338882446288,0.4615653991699218,0
0.9087181091308594,0.4615653991699218,0
0.9084972381591796,0.4616237640380859,0
0.9083261489868164,0.4616237640380859,0
0.9081115722656250,0.4619253158569336,0
0.9081768035888671,0.4619253158569336,0
0.9092811584472655,0.4618715286254882,0
0.9088909149169921,0.4618715286254882,0
0.9086872100830078,0.4619178771972656,0
0.9089092254638671,0.4619178771972656,0
0.9087032318115233,0.4620328903198242,0
0.9090991973876953,0.4620328903198242,0
0.9086935043334960,0.4617702484130859,0
0.9081888198852539,0.4617702484130859,0
0.9076566696166992,0.4614887237548828,0
0.9073001861572265,0.4614887237548828,0
0.9081230163574219,0.4608152389526367,0
0.9071359634399414,0.4608152389526367,0
0.9062393188476562,0.4595643997192382,0
0.9053792953491211,0.4595643997192382,0
0.9041782379150390,0.4577785491943359,0
0.9033668518066406,0.4577785491943359,0
0.9017086029052734,0.4552494049072265,0
0.8996023178100586,0.4552494049072265,0
0.8973987579345702,0.4520181655883789,0
0.8954217910766601,0.4520181655883789,0
0.8948169708251953,0.4487937927246093,0
0.8928497314453124,0.4487937927246093,0
0.8913482666015625,0.4466279983520507,0
0.8906879425048828,0.4466279983520507,0
0.8898960113525390,0.4456895828247070,0
0.8901449203491211,0.4456895828247070,0
0.8897895812988281,0.4454423904418945,0
0.8896917343139649,0.4454423904418945,0
0.8896430969238281,0.4460535049438477,0
0.8900121688842774,0.4460535049438477,0
0.8914775848388672,0.4466211318969727,0
0.8916606903076172,0.4466211318969727,0
0.8918729782104492,0.4474502563476562,0
0.8926122665405273,0.4474502563476562,0
0.8930019378662110,0.4484298706054687,0
0.8940301895141601,0.4484298706054687,0
0.8941469192504883,0.4493814468383789,0
0.8944622039794922,0.4493814468383789,0
0.8945978164672851,0.4503221511840820,0
0.8950658798217773,0.4503221511840820,0
0.8966863632202148,0.4510614395141601,0
0.8967172622680664,0.4510614395141601,0
0.8968517303466796,0.4518293380737304,0
0.8975109100341797,0.4518293380737304,0
0.8978221893310546,0.4527317047119140,0
0.8987749099731445,0.4527317047119140,0
0.8988979339599609,0.4535694122314453,0
0.8992177963256835,0.4535694122314453,0
0.8992366790771484,0.4544981002807617,0
0.8996692657470703,0.4544981002807617,0
0.9011581420898437,0.4550222396850586,0
0.9011512756347656,0.4550222396850586,0
0.9012222290039062,0.4554971694946289,0
0.9016399383544922,0.4554971694946289,0
0.9016736984252929,0.4561449050903320,0
0.9024719238281249,0.4561449050903320,0
0.9023391723632812,0.4565048217773438,0
0.9022081375122070,0.4565048217773438,0
0.9021085739135741,0.4569196701049805,0
0.9022012710571289,0.4569196701049805,0
0.9034973144531250,0.4569997787475586,0
0.9032003402709960,0.4569997787475586,0
0.9029617309570312,0.4571496963500976,0
0.9032512664794922,0.4571496963500976,0
0.9031528472900390,0.4573951721191406,0
0.9037342071533203,0.4573951721191406,0
0.9034011840820312,0.4575181961059570,0
0.9031940460205078,0.4575181961059570,0
0.9029817581176758,0.4576601028442382,0
0.9029829025268554,0.4576601028442382,0
0.9040861129760742,0.4576641082763672,0
0.9037370681762695,0.4576641082763672,0
0.9035848617553710,0.4577505111694335,0
0.9037628173828125,0.4577505111694335,0
0.9037147521972656,0.4579524993896484,0
0.9043395996093749,0.4579524993896484,0
0.9040792465209960,0.4582426071166992,0
0.9040283203124999,0.4582426071166992,0
0.9037776947021484,0.4585098266601562,0
0.9039075851440429,0.4585098266601562,0
0.9051309585571289,0.4586208343505859,0
0.9048837661743163,0.4586208343505859,0
0.9046680450439453,0.4588171005249023,0
0.9049798965454101,0.4588171005249023,0
0.9049283981323242,0.4591220855712890,0
0.9055618286132812,0.4591220855712890,0
0.9052551269531249,0.4593418121337891,0
0.9051950454711913,0.4593418121337891,0
0.9048437118530273,0.4595214843750000,0
0.9058856964111328,0.4594539642333984,0
0.9055217742919921,0.4596851348876953,0
0.9055406570434570,0.4596668243408203,0
0.9056299209594726,0.4598596572875976,0
0.9064344406127929,0.4598854064941406,0
0.9062038421630859,0.4598854064941406,0
0.9059629440307617,0.4601394653320312,0
0.9062725067138672,0.4601394653320312,0
0.9062822341918945,0.4604129791259766,0
0.9069683074951171,0.4604129791259766,0
0.9068126678466797,0.4607603073120117,0
0.9067760467529297,0.4607603073120117,0
0.9066621780395507,0.4610555648803711,0
0.9070907592773437,0.4610555648803711,0
0.9079353332519531,0.4611751556396484,0
0.9075868606567382,0.4611751556396484,0
0.9073837280273437,0.4613697052001953,0
0.9076377868652343,0.4613697052001953,0
0.9076349258422851,0.4615087509155273,0
0.9081550598144531,0.4615087509155273,0
0.9078409194946289,0.4616621017456055,0
0.9076240539550781,0.4616621017456055,0
0.9074243545532226,0.4618251800537109,0
0.9073734283447266,0.4618251800537109,0
0.9083776473999023,0.4616849899291992,0
0.9080137252807616,0.4616849899291992,0
0.9075159072875976,0.4614492416381836,0
0.9074810028076171,0.4614492416381836,0
0.9071302413940430,0.4610927581787109,0
0.9072978973388671,0.4610927581787109,0
0.9066398620605468,0.4605760574340820,0
0.9059360504150390,0.4605760574340820,0
0.9051074981689453,0.4596061706542969,0
0.9041885375976562,0.4596061706542969,0
0.9042486190795898,0.4577196121215820,0
0.9026899337768555,0.4577196121215820,0
0.9010293960571288,0.4551412582397460,0
0.8991588592529297,0.4551412582397460,0
0.8968700408935547,0.4513240814208984,0
0.8950304031372071,0.4513240814208984,0
0.8926568984985351,0.4476310729980469,0
0.8903886795043945,0.4476310729980469,0
0.8883985519409180,0.4446681976318359,0
0.8875820159912109,0.4446681976318359,0
0.8873428344726563,0.4428606033325195,0
0.8863889694213867,0.4428606033325195,0
0.8858505249023437,0.4423690795898437,0
0.8860439300537110,0.4423690795898437,0
0.8861263275146484,0.4426425933837890,0
0.8871517181396484,0.4426425933837890,0
0.8869949340820312,0.4435152053833007,0
0.8873600006103516,0.4435152053833007,0
0.8875230789184571,0.4443243026733398,0
0.8880157470703125,0.4443243026733398,0
0.8898565292358398,0.4452255249023437,0
0.8897026062011718,0.4452255249023437,0
0.8902147293090820,0.4461559295654297,0
0.8909402847290039,0.4461559295654297,0
0.8912017822265624,0.4470474243164063,0
0.8922037124633789,0.4470474243164063,0
0.8923736572265625,0.4480951309204101,0
0.8927026748657226,0.4480951309204101,0
0.8928646087646485,0.4489437103271484,0
0.8933492660522461,0.4489437103271484,0
0.8949211120605468,0.4498003005981445,0
0.8950836181640625,0.4498003005981445,0
0.8952283859252930,0.4507135391235351,0
0.8960020065307617,0.4507135391235351,0
0.8963848114013672,0.4517137527465820,0
0.8973289489746094,0.4517137527465820,0
0.8976127624511718,0.4527534484863281,0
0.8978885650634766,0.4527534484863281,0
0.8979715347290039,0.4535362243652343,0
0.8984298706054688,0.4535362243652343,0
0.8998334884643554,0.4541662216186523,0
0.8998615264892578,0.4541662216186523,0
0.8998620986938476,0.4547206878662109,0
0.9003444671630859,0.4547206878662109,0
0.9004045486450195,0.4551349639892578,0
0.9011100769042968,0.4551349639892578,0
0.9010597229003906,0.4557231903076172,0
0.9010002136230468,0.4557231903076172,0
0.9007490158081054,0.4559486389160156,0
0.9008771896362304,0.4559486389160156,0
0.9020977020263672,0.4560487747192383,0
0.9018608093261719,0.4560487747192383,0
0.9015615463256835,0.4562290191650391,0
0.9018310546874999,0.4562290191650391,0
0.9018236160278320,0.4564229965209960,0
0.9022985458374023,0.4564229965209960,0
0.9020868301391601,0.4567348480224609,0
0.9020256042480468,0.4567348480224609,0
0.9017766952514648,0.4568984985351562,0
0.9018596649169921,0.4568984985351562,0
0.9030744552612304,0.4569740295410156,0
0.9028060913085937,0.4569740295410156,0
0.9026779174804687,0.4571645736694336,0
0.9029170989990234,0.4571645736694336,0
0.9028861999511718,0.4574071884155273,0
0.9033994674682617,0.4574071884155273,0
0.9032592773437500,0.4577722549438477,0
0.9031923294067382,0.4577722549438477,0
0.9029668807983398,0.4579822540283203,0
0.9030349731445312,0.4579822540283203,0
0.9043510437011718,0.4581933975219726,0
0.9041519165039062,0.4581933975219726,0
0.9039659500122070,0.4584039688110351,0
0.9042778015136719,0.4584039688110351,0
0.9042932510375976,0.4586791992187500,0
0.9049192428588867,0.4586791992187500,0
0.9047630310058593,0.4591844558715820,0
0.9047647476196289,0.4591844558715820,0
0.9046211242675781,0.4594139099121093,0
0.9046680450439453,0.4594139099121093,0
0.9059560775756835,0.4596078872680664,0
0.9057872772216796,0.4596078872680664,0
0.9056116104125976,0.4598791122436523,0
0.9058582305908203,0.4598791122436523,0
0.9058244705200195,0.4600353240966797,0
0.9063177108764648,0.4600353240966797,0
0.9061964035034179,0.4604455947875976,0
0.9061243057250976,0.4604455947875976,0
0.9057775497436523,0.4605148315429687,0
0.9058244705200195,0.4605148315429687,0
0.9070844650268555,0.4606172561645507,0
0.9068893432617187,0.4606172561645507,0
0.9066432952880858,0.4608484268188476,0
0.9069225311279296,0.4608484268188476,0
0.9069831848144531,0.4610704421997070,0
0.9074832916259765,0.4610704421997070,0
0.9073551177978515,0.4614915847778320,0
0.9072887420654296,0.4614915847778320,0
0.9069854736328125,0.4615402221679688,0
0.9070392608642578,0.4615402221679688,0
0.9081441879272460,0.4616409301757812,0
0.9078935623168944,0.4616409301757812,0
0.9076543807983398,0.4617181777954101,0
0.9078712463378906,0.4617181777954101,0
0.9077093124389648,0.4618068695068359,0
0.9081304550170898,0.4618068695068359,0
0.9079164505004882,0.4620872497558594,0
0.9077007293701171,0.4620872497558594,0
0.9073448181152344,0.4618904113769531,0
0.9071376800537109,0.4618904113769531,0
0.9081001281738281,0.4615745544433594,0
0.9076086044311523,0.4615745544433594,0
0.9070598602294921,0.4611436843872070,0
0.9067583084106445,0.4611436843872070,0
0.9062484741210937,0.4603654861450195,0
0.9059778213500976,0.4603654861450195,0
0.9048551559448241,0.4590808868408203,0
0.9034097671508788,0.4590808868408203,0
0.9017887115478516,0.4563817977905273,0
0.8996332168579101,0.4563817977905273,0
0.8982398986816406,0.4518013000488281,0
0.8948741912841797,0.4518013000488281,0
0.8918277740478515,0.4465478897094726,0
0.8890205383300781,0.4465478897094726,0
0.8865165710449219,0.4422082901000977,0
0.8847799301147461,0.4422082901000977,0
0.8833574295043946,0.4399360656738281,0
0.8822633743286132,0.4399360656738281,0
0.8813856124877929,0.4387887954711914,0
0.8810337066650390,0.4387887954711914,0
0.8822261810302734,0.4386697769165039,0
0.8821575164794921,0.4386697769165039,0
0.8821706771850586,0.4392059326171875,0
0.8828121185302734,0.4392059326171875,0
0.8831565856933593,0.4399995803833008,0
0.8841688156127929,0.4399995803833008,0
0.8845590591430664,0.4413814544677734,0
0.8850088119506836,0.4413814544677734,0
0.8852085113525391,0.4422065734863281,0
0.8857847213745117,0.4422065734863281,0
0.8874240875244140,0.4432605743408203,0
0.8877628326416015,0.4432605743408203,0
0.8879693984985352,0.4442687988281250,0
0.8886720657348632,0.4442687988281250,0
0.8890834808349609,0.4451637268066406,0
0.8900390625000000,0.4451637268066406,0
0.8902879714965820,0.4463962554931640,0
0.8906667709350585,0.4463962554931640,0
0.8908452987670898,0.4472202301025390,0
0.8912967681884766,0.4472202301025390,0
0.8929344177246094,0.4481695175170898,0
0.8932645797729492,0.4481695175170898,0
0.8934156417846679,0.4492527008056640,0
0.8942241668701172,0.4492527008056640,0
0.8945737838745117,0.4501899719238281,0
0.8955774307250977,0.4501899719238281,0
0.8958950042724609,0.4515089035034179,0
0.8962554931640625,0.4515089035034179,0
0.8963104248046875,0.4521492004394531,0
0.8967596054077148,0.4521492004394531,0
0.8981838226318359,0.4528478622436523,0
0.8983337402343750,0.4528478622436523,0
0.8982444763183594,0.4534149169921875,0
0.8987325668334961,0.4534149169921875,0
0.8988355636596680,0.4538497924804688,0
0.8994134902954102,0.4538497924804688,0
0.8994329452514648,0.4546228408813476,0
0.8994226455688477,0.4546228408813476,0
0.8991817474365235,0.4545455932617187,0
0.8992561340332031,0.4545455932617187,0
0.9003999710083007,0.4547058105468750,0
0.9002431869506835,0.4547058105468750,0
0.9000137329101562,0.4549804687500000,0
0.9002546310424804,0.4549804687500000,0
0.9002197265624999,0.4551206588745117,0
0.9007238388061523,0.4551206588745117,0
0.9006563186645508,0.4557592391967773,0
0.9005596160888671,0.4557592391967773,0
0.9003862380981444,0.4557014465332031,0
0.9004755020141602,0.4557014465332031,0
0.9016696929931640,0.4559766769409179,0
0.9015071868896484,0.4559766769409179,0
0.9013807296752929,0.4562313079833984,0
0.9016674041748046,0.4562313079833984,0
0.9017200469970703,0.4564865112304687,0
0.9022859573364257,0.4564865112304687,0
0.9020793914794921,0.4568355560302734,0
0.9013315200805664,0.4568355560302734,0
0.9012428283691406,0.4566484451293945,0
0.9013504028320312,0.4566484451293945,0
0.9027837753295898,0.4570581436157226,0
0.9026630401611327,0.4570581436157226,0
0.9024799346923827,0.4573625564575195,0
0.9027030944824218,0.4573625564575195,0
0.9026973724365234,0.4575273513793945,0
0.9031545639038085,0.4575273513793945,0
0.9031116485595703,0.4580995559692382,0
0.9031122207641601,0.4580995559692382,0
0.9027088165283202,0.4580062866210937,0
0.9026887893676757,0.4580062866210937,0
0.9037845611572265,0.4580818176269531,0
0.9035087585449219,0.4580818176269531,0
0.9032009124755859,0.4581390380859375,0
0.9034275054931640,0.4581390380859375,0
0.9032381057739257,0.4581224441528320,0
0.9035013198852538,0.4581224441528320,0
0.9032335281372070,0.4583787918090820,0
0.9029045104980469,0.4583787918090820,0
0.9023105621337890,0.4577241897583008,0
0.9018785476684570,0.4577241897583008,0
0.9024026870727538,0.4571720123291015,0
0.9018133163452148,0.4571720123291015,0
0.9023986816406250,0.4576395034790039,0
0.9023128509521484,0.4576395034790039,0
0.9022338867187499,0.4576486587524414,0
0.9028507232666015,0.4576486587524414,0
0.9026824951171875,0.4581018447875976,0
0.9026647567749023,0.4581018447875976,0
0.9022201538085937,0.4578912734985351,0
0.9021171569824218,0.4578912734985351,0
0.9032335281372070,0.4578849792480468,0
0.9030698776245116,0.4578849792480468,0
0.9028409957885741,0.4584142684936523,0
0.9029766082763672,0.4583398818969726,0
0.9038017272949218,0.4588479995727539,0
0.9045948028564452,0.4588479995727539,0
0.9048110961914062,0.4598596572875976,0
0.9049650192260742,0.4598596572875976,0
0.9048654556274414,0.4600536346435546,0
0.9050977706909179,0.4600536346435546,0
0.9063268661499023,0.4604009628295898,0
0.9062112808227538,0.4604009628295898,0
0.9061557769775390,0.4606796264648437,0
0.9064538955688476,0.4606796264648437,0
0.9065076828002929,0.4610097885131836,0
0.9070867538452148,0.4610097885131836,0
0.9074632644653320,0.4619367599487305,0
0.9074924468994140,0.4619115829467773,0
0.9073413848876952,0.4618000030517578,0
0.9081218719482421,0.4619922637939453,0
0.9079233169555664,0.4624774932861328,0
0.9073453903198242,0.4624162673950195,0
0.9080400466918945,0.4625787734985352,0
0.9082019805908202,0.4631240844726562,0
0.9082872390747070,0.4630079269409180,0
0.9081241607666015,0.4629587173461914,0
0.9085744857788085,0.4629604339599609,0
0.9088777542114257,0.4636264801025390,0
0.9088256835937499,0.4632596969604492,0
0.9089435577392577,0.4635234832763672,0
0.9092416763305664,0.4632888793945312,0
0.9088611602783203,0.4636859893798828,0
0.9088720321655273,0.4632419586181640,0
0.9084560394287109,0.4628339767456054,0
0.9086008071899414,0.4628339767456054,0
0.9072727203369140,0.4626228332519531,0
0.9072727203369140,0.4615024566650390,0
0.9048528671264648,0.4588314056396484,0
0.8959619522094726,0.4508016586303711,0
0.8851341247558594,0.4419187545776367,0
0.8839141845703125,0.4406753540039062,0
0.8823194503784180,0.4398124694824219,0
0.8818307876586914,0.4397609710693359,0
0.8815464019775391,0.4392271041870117,0
0.8819984436035156,0.4392786026000977,0
0.8827795028686524,0.4404247283935547,0
0.8831789016723632,0.4404464721679687,0
0.8841018676757812,0.4414678573608398,0
0.8849378585815429,0.4411382675170898,0
0.8855552673339844,0.4424686431884766,0
0.8855524063110352,0.4425132751464844,0
0.8861726760864258,0.4430786132812500,0
0.8869857788085938,0.4432880401611328,0
0.8869342803955078,0.4438505172729492,0
0.8871814727783203,0.4438236236572266,0
0.8876546859741211,0.4440977096557617,0
0.8879013061523438,0.4444816589355469,0
0.8880529403686523,0.4451065063476562,0
0.8879362106323242,0.4451065063476562,0
0.8897512435913085,0.4457868576049804,0
0.8897512435913085,0.4463510513305664,0
0.8903795242309570,0.4473237991333008,0
0.8904733657836914,0.4477031707763672,0
0.8923873901367188,0.4484436035156250,0
0.8926374435424804,0.4486558914184570,0
0.8931615829467773,0.4493677139282227,0
0.8926265716552734,0.4496292114257812,0
0.8938556671142578,0.4498586654663086,0
0.8938270568847656,0.4500000000000000,0
0.8938219070434570,0.4502832412719726,0
0.8933017730712890,0.4504486083984375,0
0.8942922592163086,0.4503873825073242,0
0.8941623687744140,0.4505596160888672,0
0.8939775466918946,0.4508182525634765,0
0.8937051773071288,0.4508457183837891,0
0.8949474334716797,0.4510843276977539,0
0.8949474334716797,0.4512342453002929,0
0.8947912216186523,0.4514888763427734,0
0.8944862365722656,0.4515306472778320,0
0.8957674026489257,0.4516765594482421,0
0.8957674026489257,0.4518854141235351,0
0.8956140518188477,0.4522150039672851,0
0.8954772949218750,0.4521806716918945,0
0.8967756271362305,0.4525514602661133,0
0.8967046737670898,0.4526990890502929,0
0.8969564437866211,0.4530887603759766,0
0.8964277267456054,0.4532260894775391,0
0.8977529525756835,0.4533325195312500,0
0.8977191925048827,0.4535522460937500,0
0.8975463867187500,0.4538972854614258,0
0.8973878860473633,0.4538217544555664,0
0.8983028411865234,0.4539430618286133,0
0.8981861114501953,0.4540758132934570,0
0.8979412078857422,0.4542119979858398,0
0.8973936080932617,0.4541942596435546,0
0.8982393264770507,0.4539396286010742,0
0.8978851318359374,0.4541759490966797,0
0.8976099014282226,0.4540981292724609,0
0.8970457077026367,0.4541118621826172,0
0.8977746963500977,0.4539196014404296,0
0.8975893020629883,0.4540809631347656,0
0.8974960327148437,0.4542022705078125,0
0.8969627380371094,0.4542348861694336,0
0.8978885650634766,0.4541685104370117,0
0.8978038787841797,0.4543968200683594,0
0.8980138778686523,0.4546079635620117,0
0.8974485397338867,0.4546995162963867,0
0.8984859466552734,0.4548820495605468,0
0.8982198715209960,0.4548820495605468,0
0.8983240127563477,0.4550354003906250,0
0.8977867126464844,0.4551441192626953,0
0.8989179611206054,0.4550817489624023,0
0.8988389968872070,0.4553152084350586,0
0.8990386962890625,0.4556201934814453,0
0.8985145568847656,0.4557518005371093,0
0.8997499465942382,0.4560710906982421,0
0.8995765686035156,0.4560710906982421,0
0.9000417709350585,0.4563875198364258,0
0.8994970321655273,0.4565425872802734,0
0.9006425857543945,0.4568956375122070,0
0.9005344390869140,0.4568956375122070,0
0.9012102127075194,0.4572933197021484,0
0.9006969451904296,0.4575033187866211,0
0.9020931243896484,0.4579450607299804,0
0.9020416259765625,0.4579450607299804,0
0.9020713806152343,0.4584245681762695,0
0.9020713806152343,0.4586666107177734,0
0.9033702850341796,0.4589412689208984,0
0.9032598495483398,0.4589412689208984,0
0.9034938812255859,0.4591850280761718,0
0.9029605865478515,0.4592800140380859,0
0.9038246154785156,0.4593618392944336,0
0.9035076141357421,0.4593618392944336,0
0.9032569885253906,0.4592937469482422,0
0.9027328491210938,0.4592496871948242,0
0.9033216476440429,0.4590396881103516,0
0.9029428482055664,0.4590396881103516,0
0.9026149749755858,0.4589309692382812,0
0.9021268844604492,0.4588554382324219,0
0.9029291152954101,0.4588869094848633,0
0.9025485992431640,0.4588869094848633,0
0.9027563095092773,0.4590780258178710,0
0.9022493362426758,0.4590311050415039,0
0.9030727386474608,0.4590734481811523,0
0.9026819229125976,0.4590734481811523,0
0.9026029586791992,0.4590036392211914,0
0.9021606445312500,0.4588497161865234,0
0.9025400161743163,0.4584245681762695,0
0.9018459320068359,0.4584245681762695,0
0.9006465911865233,0.4576469421386719,0
0.9001710891723632,0.4569236755371093,0
0.8987852096557617,0.4549089431762695,0
0.8972528457641601,0.4549089431762695,0
0.8930768966674805,0.4517549514770507,0
0.8926774978637695,0.4495450973510742,0
0.8885370254516601,0.4452615737915039,0
0.8859134674072265,0.4452615737915039,0
0.8823291778564453,0.4417402267456055,0
0.8818679809570312,0.4404006958007812,0
0.8805559158325195,0.4388059616088867,0
0.8798652648925781,0.4388059616088867,0
0.8795774459838867,0.4383813858032227,0
0.8791219711303710,0.4384786605834961,0
0.8805204391479492,0.4389919281005859,0
0.8806154251098632,0.4389919281005859,0
0.8816820144653320,0.4398181915283203,0
0.8812202453613281,0.4402341842651367,0
0.8830690383911133,0.4411537170410156,0
0.8835136413574218,0.4411537170410156,0
0.8838060379028320,0.4423719406127929,0
0.8845493316650390,0.4430820465087891,0
0.8854259490966797,0.4430820465087891,0
0.8860061645507812,0.4437086105346680,0
0.8854997634887695,0.4439506530761719,0
0.8868032455444336,0.4444187164306641,0
0.8867889404296875,0.4450361251831055,0
0.8873039245605469,0.4449308395385742,0
0.8882091522216796,0.4453182220458984,0
0.8882091522216796,0.4456317901611328,0
0.8882091522216796,0.4467796325683593,0
0.8885141372680664,0.4467796325683593,0
0.8886091232299804,0.4469570159912109,0
0.8890171051025391,0.4469570159912109,0
0.8902587890625000,0.4476963043212890,0
0.8905523300170898,0.4476963043212890,0
0.8906444549560547,0.4484561920166015,0
0.8913276672363281,0.4484561920166015,0
0.8914112091064453,0.4489454269409179,0
0.8920892715454102,0.4489454269409179,0
0.8923238754272461,0.4502397537231445,0
0.8924303054809570,0.4502397537231445,0
0.8923988342285156,0.4502134323120117,0
0.8926431655883789,0.4502134323120117,0
0.8936141967773438,0.4505813598632812,0
0.8936508178710937,0.4505813598632812,0
0.8936141967773438,0.4510368347167968,0
0.8940782546997070,0.4510368347167968,0
0.8940771102905273,0.4511495590209961,0
0.8945549011230468,0.4511495590209961,0
0.8945938110351562,0.4521440505981445,0
0.8944959640502930,0.4521440505981445,0
0.8942916870117187,0.4517343521118164,0
0.8943426132202148,0.4517343521118164,0
0.8951917648315429,0.4518831253051758,0
0.8950819015502930,0.4518831253051758,0
0.8948610305786132,0.4519735336303711,0
0.8950830459594726,0.4519735336303711,0
0.8949039459228515,0.4518659591674805,0
0.8951574325561523,0.4518659591674805,0
0.8951951980590820,0.4528215408325195,0
0.8950847625732422,0.4528215408325195,0
0.8948186874389649,0.4524169921875000,0
0.8948684692382812,0.4524169921875000,0
0.8958137512207031,0.4526447296142578,0
0.8958177566528320,0.4526447296142578,0
0.8956466674804687,0.4529863357543945,0
0.8958898544311523,0.4529863357543945,0
0.8958263397216797,0.4529182434082031,0
0.8962549209594727,0.4529182434082031,0
0.8961565017700195,0.4538560867309570,0
0.8960317611694336,0.4538560867309570,0
0.8958858489990235,0.4534498214721679,0
0.8958755493164062,0.4534498214721679,0
0.8966148376464843,0.4536483764648437,0
0.8966148376464843,0.4536483764648437,0
0.8964963912963867,0.4538640975952148,0
0.8967447280883789,0.4538640975952148,0
0.8966360092163086,0.4538354873657227,0
0.8969758987426758,0.4538354873657227,0
0.8969438552856445,0.4547624588012695,0
0.8969249725341797,0.4547624588012695,0
0.8967710494995117,0.4544019699096680,0
0.8968488693237304,0.4544019699096680,0
0.8977981567382812,0.4547201156616211,0
0.8977907180786132,0.4547201156616211,0
0.8977746963500977,0.4551378250122070,0
0.8982965469360351,0.4551378250122070,0
0.8982759475708008,0.4553283691406250,0
0.8988389968872070,0.4553283691406250,0
0.8989236831665038,0.4565757751464843,0
0.8990415573120117,0.4565757751464843,0
0.8990318298339843,0.4562730789184570,0
0.8991468429565429,0.4562730789184570,0
0.9001459121704101,0.4566570281982422,0
0.9002506256103515,0.4566570281982422,0
0.9002248764038085,0.4570301055908203,0
0.9006174087524413,0.4570301055908203,0
0.9005516052246093,0.4571119308471679,0
0.9009012222290038,0.4571119308471679,0
0.9011049270629883,0.4581882476806640,0
0.9010019302368164,0.4581882476806640,0
0.9008543014526367,0.4578083038330078,0
0.9008411407470702,0.4578083038330078,0
0.9016754150390625,0.4579484939575195,0
0.9017818450927734,0.4579484939575195,0
0.9015546798706054,0.4582466125488281,0
0.9018190383911132,0.4582466125488281,0
0.9017211914062500,0.4581207275390625,0
0.9020496368408203,0.4581207275390625,0
0.9020267486572265,0.4591312408447266,0
0.9019563674926757,0.4591312408447266,0
0.9017801284790039,0.4586076736450195,0
0.9016542434692383,0.4586076736450195,0
0.9025543212890624,0.4587621688842773,0
0.9025314331054687,0.4587621688842773,0
0.9022407531738281,0.4589092254638671,0
0.9024627685546874,0.4589092254638671,0
0.9022733688354492,0.4586872100830078,0
0.9025011062622070,0.4586872100830078,0
0.9024890899658202,0.4596187591552734,0
0.9022916793823241,0.4596187591552734,0
0.9020307540893554,0.4590734481811523,0
0.9019271850585937,0.4590734481811523,0
0.9026830673217773,0.4590505599975586,0
0.9025732040405273,0.4590505599975586,0
0.9023328781127929,0.4590848922729492,0
0.9025314331054687,0.4590848922729492,0
0.9021703720092773,0.4588617324829101,0
0.9023952484130859,0.4588617324829101,0
0.9023511886596679,0.4597377777099609,0
0.9021514892578124,0.4597377777099609,0
0.9020290374755859,0.4591558456420898,0
0.9019746780395508,0.4591558456420898,0
0.9026945114135742,0.4593441009521484,0
0.9027420043945312,0.4593441009521484,0
0.9025846481323242,0.4595832824707031,0
0.9028438568115233,0.4595832824707031,0
0.9027236938476562,0.4594734191894531,0
0.9031665802001952,0.4594734191894531,0
0.9032358169555663,0.4606138229370117,0
0.9031900405883788,0.4606138229370117,0
0.9031076431274414,0.4601606369018554,0
0.9031316757202148,0.4601606369018554,0
0.9036701202392577,0.4607780456542969,0
0.9034612655639648,0.4608718872070312,0
0.9034881591796875,0.4598499298095703,0
0.9030796051025390,0.4594797134399414,0
0.9025182723999023,0.4597572326660156,0
0.9018871307373046,0.4597572326660156,0
0.9009069442749023,0.4576898574829101,0
0.8996847152709960,0.4576898574829101,0
0.8991388320922852,0.4552631378173828,0
0.8970148086547851,0.4552631378173828,0
0.8941383361816406,0.4504497528076172,0
0.8910747528076172,0.4504497528076172,0
0.8877187728881836,0.4443592071533203,0
0.8846534729003906,0.4443592071533203,0
0.8819515228271484,0.4401094436645508,0
0.8794126510620117,0.4401094436645508,0
0.8775798797607421,0.4362075805664062,0
0.8762397766113281,0.4362075805664062,0
0.8763233184814453,0.4349412918090820,0
0.8759136199951172,0.4349412918090820,0
0.8755908966064453,0.4348314285278320,0
0.8759645462036133,0.4348314285278320,0
0.8760314941406250,0.4348674774169922,0
0.8765733718872070,0.4348674774169922,0
0.8770116806030274,0.4365772247314453,0
0.8774414062500000,0.4365772247314453,0
0.8779500961303711,0.4369869232177734,0
0.8783941268920898,0.4369869232177734,0
0.8795597076416015,0.4381021499633789,0
0.8802549362182617,0.4381021499633789,0
0.8805553436279296,0.4392728805541992,0
0.8813484191894531,0.4392728805541992,0
0.8816637039184571,0.4398216247558593,0
0.8823440551757812,0.4398216247558593,0
0.8826793670654297,0.4414861679077148,0
0.8829294204711914,0.4414861679077148,0
0.8831245422363281,0.4415388107299805,0
0.8833396911621093,0.4415388107299805,0
0.8843307495117188,0.4422088623046875,0
0.8846202850341797,0.4422088623046875,0
0.8848068237304687,0.4430236816406250,0
0.8854288101196289,0.4430236816406250,0
0.8856016159057617,0.4434202194213867,0
0.8861824035644531,0.4434202194213867,0
0.8866086959838867,0.4451683044433594,0
0.8868942260742188,0.4451683044433594,0
0.8872129440307617,0.4453342437744141,0
0.8876203536987305,0.4453342437744141,0
0.8886188507080078,0.4462285995483398,0
0.8890348434448242,0.4462285995483398,0
0.8892396926879883,0.4471012115478515,0
0.8897935867309570,0.4471012115478515,0
0.8899080276489257,0.4473896026611328,0
0.8904590606689453,0.4473896026611328,0
0.8907234191894531,0.4488510131835937,0
0.8909431457519531,0.4488510131835937,0
0.8910793304443360,0.4486919403076172,0
0.8912281036376953,0.4486919403076172,0
0.8920503616333008,0.4492063522338867,0
0.8921293258666992,0.4492063522338867,0
0.8920846939086914,0.4495307922363281,0
0.8923656463623046,0.4495307922363281,0
0.8922168731689453,0.4493894577026367,0
0.8924091339111327,0.4493894577026367,0
0.8923896789550781,0.4503742218017578,0
0.8921974182128906,0.4503742218017578,0
0.8919736862182617,0.4496984481811523,0
0.8918718338012696,0.4496984481811523,0
0.8924715042114257,0.4497774124145508,0
0.8923776626586913,0.4497774124145508,0
0.8922048568725586,0.4499353408813476,0
0.8924285888671875,0.4499353408813476,0
0.8922775268554687,0.4496864318847656,0
0.8925024032592773,0.4496864318847656,0
0.8925699234008789,0.4508331298828125,0
0.8925584793090821,0.4508331298828125,0
0.8924709320068359,0.4503393173217773,0
0.8925138473510742,0.4503393173217773,0
0.8932285308837891,0.4506065368652343,0
0.8933126449584960,0.4506065368652343,0
0.8931953430175781,0.4509252548217773,0
0.8938001632690430,0.4509510040283203,0
0.8938001632690430,0.4512668609619140,0
0.8938940048217773,0.4516736984252929,0
0.8942699432373047,0.4516736984252929,0
0.8941308975219726,0.4515169143676758,0
0.8944919586181640,0.4515169143676758,0
0.8944730758666992,0.4526699066162109,0
0.8944536209106445,0.4526699066162109,0
0.8944021224975586,0.4521640777587890,0
0.8942716598510742,0.4521640777587890,0
0.8948604583740234,0.4523511886596679,0
0.8947946548461914,0.4523511886596679,0
0.8946372985839843,0.4525131225585937,0
0.8948461532592773,0.4525131225585937,0
0.8947185516357422,0.4522418975830078,0
0.8948850631713867,0.4522418975830078,0
0.8949668884277343,0.4532747268676758,0
0.8947757720947266,0.4532747268676758,0
0.8946395874023437,0.4526367187500000,0
0.8944868087768555,0.4526367187500000,0
0.8951551437377929,0.4528221130371093,0
0.8952301025390624,0.4528221130371093,0
0.8951225280761719,0.4531980514526367,0
0.8954595565795899,0.4531980514526367,0
0.8954166412353516,0.4531156539916992,0
0.8957342147827149,0.4531156539916992,0
0.8960426330566406,0.4544649124145508,0
0.8962314605712890,0.4544649124145508,0
0.8964145660400390,0.4542526245117187,0
0.8966560363769531,0.4542526245117187,0
0.8974090576171875,0.4547864913940429,0
0.8977975845336914,0.4547864913940429,0
0.8979492187500000,0.4554262161254883,0
0.8984481811523437,0.4554262161254883,0
0.8985385894775391,0.4555967330932617,0
0.8989505767822266,0.4555967330932617,0
0.8993133544921875,0.4570610046386718,0
0.8993865966796875,0.4570610046386718,0
0.8996601104736328,0.4568035125732421,0
0.8996761322021484,0.4568035125732421,0
0.9004554748535156,0.4571456909179688,0
0.9005235671997069,0.4571456909179688,0
0.9004657745361327,0.4574747085571289,0
0.9007959365844727,0.4574747085571289,0
0.9005973815917968,0.4572206497192383,0
0.9007238388061523,0.4572206497192383,0
0.9008428573608398,0.4583427429199218,0
0.9008211135864257,0.4583427429199218,0
0.9008251190185547,0.4577299118041992,0
0.9007032394409179,0.4577299118041992,0
0.9012594223022461,0.4578643798828125,0
0.9012994766235352,0.4578643798828125,0
0.9010488510131835,0.4581069946289062,0
0.9013818740844726,0.4581069946289062,0
0.9011953353881835,0.4577413558959961,0
0.9012863159179687,0.4577413558959961,0
0.9013658523559570,0.4588022232055664,0
0.9012537002563477,0.4588022232055664,0
0.9011615753173827,0.4581481933593750,0
0.9010276794433594,0.4581481933593750,0
0.9014968872070312,0.4582117080688476,0
0.9015466690063476,0.4582117080688476,0
0.9012971878051758,0.4584011077880859,0
0.9015329360961913,0.4584011077880859,0
0.9013401031494140,0.4580629348754883,0
0.9014917373657226,0.4580629348754883,0
0.9016227722167969,0.4592742919921875,0
0.9015443801879882,0.4592742919921875,0
0.9016839981079101,0.4586837768554687,0
0.9016027450561523,0.4586837768554687,0
0.9021629333496093,0.4588811874389648,0
0.9022298812866211,0.4588811874389648,0
0.9020370483398437,0.4590826034545898,0
0.9022361755371093,0.4590826034545898,0
0.9019048690795898,0.4586780548095703,0
0.9019683837890624,0.4586780548095703,0
0.9019781112670898,0.4595901489257812,0
0.9017251968383788,0.4595901489257812,0
0.9015117645263672,0.4585807800292969,0
0.9010831832885742,0.4585807800292969,0
0.9012193679809570,0.4581281661987304,0
0.9009498596191405,0.4581281661987304,0
0.9002998352050781,0.4576028823852539,0
0.8999536514282226,0.4576028823852539,0
0.8992498397827148,0.4563915252685546,0
0.8988132476806641,0.4563915252685546,0
0.8983285903930663,0.4561683654785156,0
0.8972740173339844,0.4561683654785156,0
0.8963939666748046,0.4538068771362305,0
0.8951768875122070,0.4538068771362305,0
0.8945463180541992,0.4517824172973632,0
0.8931684494018555,0.4517824172973632,0
0.8914237976074219,0.4491514205932617,0
0.8901231765747070,0.4491514205932617,0
0.8885971069335937,0.4462755203247070,0
0.8874984741210937,0.4462755203247070,0
0.8867734909057617,0.4456100463867188,0
0.8860233306884765,0.4456100463867188,0
0.8855266571044922,0.4441606521606445,0
0.8851867675781250,0.4441606521606445,0
0.8856130599975586,0.4440713882446289,0
0.8857738494873046,0.4440713882446289,0
0.8857852935791015,0.4445405960083008,0
0.8862939834594726,0.4445405960083008,0
0.8864387512207031,0.4447654724121093,0
0.8868043899536132,0.4447654724121093,0
0.8874361038208007,0.4465026855468750,0
0.8878194808959960,0.4465026855468750,0
0.8882818222045898,0.4466217041015625,0
0.8885375976562500,0.4466217041015625,0
0.8893232345581055,0.4474559783935547,0
0.8898044586181640,0.4474559783935547,0
0.8900539398193359,0.4482507705688477,0
0.8906953811645507,0.4482507705688477,0
0.8908842086791992,0.4485260009765625,0
0.8913145065307617,0.4485260009765625,0
0.8916641235351562,0.4501516342163085,0
0.8919565200805664,0.4501516342163085,0
0.8921522140502930,0.4500514984130859,0
0.8922849655151367,0.4500514984130859,0
0.8929738998413086,0.4505939483642578,0
0.8932880401611328,0.4505939483642578,0
0.8932371139526367,0.4511112213134765,0
0.8937211990356445,0.4511112213134765,0
0.8936182022094726,0.4511238098144531,0
0.8938339233398437,0.4511238098144531,0
0.8942361831665039,0.4525382995605469,0
0.8943157196044922,0.4525382995605469,0
0.8944021224975586,0.4521892547607422,0
