REDsignal,IRsignal,synced
0.6525907516479492,0.2886148452758789,0
0.6533472061157226,0.2886148452758789,0
0.6487752914428710,0.2862367630004883,0
0.6524431228637695,0.2862367630004883,0
0.6523664474487304,0.2888551712036133,0
0.6475799560546874,0.2888551712036133,0
0.6535160064697265,0.2871557235717773,0
0.6424570083618164,0.2871557235717773,0
0.6510303497314452,0.2826330184936524,0
0.6661542892456055,0.2826330184936524,0
0.6532625198364258,0.2889278411865234,0
0.6472309112548827,0.2889278411865234,0
0.6498184204101562,0.2872146606445312,0
0.6520437240600586,0.2872146606445312,0
0.6528001785278320,0.2889747619628906,0
0.6487060546875000,0.2889747619628906,0
0.6541013717651367,0.2874206542968750,0
0.6438182830810547,0.2874206542968750,0
0.6513450622558593,0.2835044860839844,0
0.6659317016601562,0.2835044860839844,0
0.6536121368408203,0.2893850326538086,0
0.6476829528808593,0.2893850326538086,0
0.6499986648559570,0.2876443862915039,0
0.6524568557739258,0.2876443862915039,0
0.6531955718994140,0.2894325256347656,0
0.6486963272094727,0.2894325256347656,0
0.6540733337402344,0.2876998901367188,0
0.6432025909423827,0.2876998901367188,0
0.6511402130126953,0.2832183837890625,0
0.6661474227905273,0.2832183837890625,0
0.6529993057250977,0.2890748977661133,0
0.6463645935058594,0.2890748977661133,0
0.6485149383544921,0.2867036819458008,0
0.6504770278930664,0.2867036819458008,0
0.6511156082153320,0.2878263473510742,0
0.6462764739990234,0.2878263473510742,0
0.6510818481445312,0.2856548309326172,0
0.6397670745849610,0.2856548309326172,0
0.6475896835327148,0.2804746627807617,0
0.6628211975097656,0.2804746627807617,0
0.6494007110595703,0.2862035751342774,0
0.6424661636352539,0.2862035751342774,0
0.6445049285888672,0.2838712692260742,0
0.6468566894531250,0.2838712692260742,0
0.6479473114013672,0.2854362487792969,0
0.6435310363769531,0.2854362487792969,0
0.6489120483398437,0.2840852737426758,0
0.6380584716796874,0.2840852737426758,0
0.6465368270874023,0.2798990249633789,0
0.6624595642089843,0.2798990249633789,0
0.6496576309204102,0.2861480712890625,0
0.6435768127441406,0.2861480712890625,0
0.6454599380493163,0.2848749160766602,0
0.6477516174316406,0.2848749160766602,0
0.6495746612548828,0.2865863800048828,0
0.6456018447875976,0.2865863800048828,0
0.6510297775268554,0.2857990264892578,0
0.6401550292968750,0.2857990264892578,0
0.6487752914428710,0.2817781448364258,0
0.6650196075439453,0.2817781448364258,0
0.6520042419433594,0.2881181716918945,0
0.6458118438720702,0.2881181716918945,0
0.6478271484375000,0.2867477416992187,0
0.6498058319091796,0.2867477416992187,0
0.6518016815185547,0.2881216049194336,0
0.6479782104492188,0.2881216049194336,0
0.6421194076538086,0.2871036529541016,0
0.6514926910400390,0.2881496429443359,0
0.6504335403442383,0.2927661895751953,0
0.6534650802612304,0.2840131759643554,0
0.6534650802612304,0.2826627731323242,0
0.6488891601562500,0.3008337020874023,0
0.6537780761718750,0.2887224197387695,0
0.6473201751708985,0.2887224197387695,0
0.6436025619506835,0.2820230484008789,0
0.6604465484619141,0.2820230484008789,0
0.6527297973632812,0.2891561508178711,0
0.6456619262695312,0.2891561508178711,0
0.6496730804443359,0.2936840057373047,0
0.6437015533447266,0.2936840057373047,0
0.6542558670043945,0.2834318161010742,0
0.6610198974609375,0.2834318161010742,0
0.6545997619628906,0.2892768859863281,0
0.6478036880493164,0.2892768859863281,0
0.6442657470703125,0.2823497772216797,0
0.6612590789794922,0.2823497772216797,0
0.6534891128540039,0.2897666931152343,0
0.6459674835205078,0.2897666931152343,0
0.6501474380493164,0.2941240310668945,0
0.6441513061523437,0.2941240310668945,0
0.6549980163574218,0.2836263656616211,0
0.6618930816650390,0.2836263656616211,0
0.6547685623168945,0.2897237777709961,0
0.6475822448730468,0.2897237777709961,0
0.6442388534545899,0.2822444915771484,0
0.6621740341186523,0.2822444915771484,0
0.6536705017089843,0.2899812698364257,0
0.6458187103271484,0.2899812698364257,0
0.6500942230224609,0.2943368911743164,0
0.6439458847045898,0.2943368911743164,0
0.6548395156860352,0.2835742950439453,0
0.6618713378906250,0.2835742950439453,0
0.6546861648559570,0.2898405075073242,0
0.6542518615722656,0.2898405075073242,0
0.6443864822387695,0.2823228836059570,0
0.6623388290405273,0.2823228836059570,0
0.6539325714111328,0.2904590606689453,0
0.6457506179809570,0.2904590606689453,0
0.6441232681274414,0.2947208404541016,0
0.6554660797119141,0.2947208404541016,0
0.6624710083007812,0.2838186264038086,0
0.6495838165283203,0.2838186264038086,0
0.6551673889160156,0.2901620864868164,0
0.6482042312622071,0.2901620864868164,0
0.6450891494750977,0.2826135635375976,0
0.6631885528564453,0.2826135635375976,0
0.6546415328979492,0.2909156799316406,0
0.6465768814086914,0.2909156799316406,0
0.6509302139282226,0.2951065063476562,0
0.6447303771972656,0.2951065063476562,0
0.6559358596801758,0.2843564987182617,0
0.6631107330322266,0.2843564987182617,0
0.6555799484252930,0.2906467437744141,0
0.6555353164672851,0.2906467437744141,0
0.6457283020019531,0.2834026336669922,0
0.6631261825561523,0.2834026336669922,0
0.6552331924438476,0.2913917541503906,0
0.6473087310791016,0.2913917541503906,0
0.6514852523803710,0.2955390930175781,0
0.6452774047851563,0.2955390930175781,0
0.6566722869873046,0.2848171234130859,0
0.6638580322265625,0.2848171234130859,0
0.6560749053955078,0.2910787582397461,0
0.6492862701416016,0.2910787582397461,0
0.6463708877563477,0.2839204788208008,0
0.6635782241821289,0.2839204788208008,0
0.6558477401733398,0.2919261932373047,0
0.6478637695312500,0.2919261932373047,0
0.6522411346435547,0.2960197448730469,0
0.6458061218261718,0.2960197448730469,0
0.6573005676269531,0.2852142333984375,0
0.6644622802734375,0.2852142333984375,0
0.6564760208129883,0.2915164947509766,0
0.6497766494750976,0.2915164947509766,0
0.6469041824340820,0.2842861175537109,0
0.6642202377319336,0.2842861175537109,0
0.6564376831054687,0.2925287246704101,0
0.6482522964477538,0.2925287246704101,0
0.6527097702026367,0.2964540481567383,0
0.6462163925170898,0.2964540481567383,0
0.6578762054443359,0.2855655670166016,0
0.6650865554809570,0.2855655670166016,0
0.6567592620849609,0.2919141769409180,0
0.6502355575561524,0.2919141769409180,0
0.6474380493164062,0.2847129821777344,0
0.6646368026733398,0.2847129821777344,0
0.6569766998291016,0.2930362701416016,0
0.6487953186035156,0.2930362701416016,0
0.6532396316528321,0.2968563079833984,0
0.6467308044433594,0.2968563079833984,0
0.6584083557128906,0.2858602523803711,0
0.6657016754150390,0.2858602523803711,0
0.6572759628295898,0.2922975540161133,0
0.6507265090942382,0.2922975540161133,0
0.6480640411376953,0.2850374221801757,0
0.6651414871215821,0.2850374221801757,0
0.6574419021606445,0.2935226440429687,0
0.6492811203002929,0.2935226440429687,0
0.6539268493652344,0.2973020553588867,0
0.6472063064575195,0.2973020553588867,0
0.6589456558227539,0.2862710952758789,0
0.6662973403930664,0.2862710952758789,0
0.6576496124267578,0.2926391601562500,0
0.6512901306152343,0.2926391601562500,0
0.6487312316894531,0.2855684280395508,0
0.6652090072631835,0.2855684280395508,0
0.6579940795898437,0.2939603805541992,0
0.6498710632324218,0.2939603805541992,0
0.6544000625610351,0.2976591110229492,0
0.6476016998291015,0.2976591110229492,0
0.6594005584716797,0.2866395950317382,0
0.6667894363403321,0.2866395950317382,0
0.6579946517944336,0.2929515838623047,0
0.6517358779907226,0.2929515838623047,0
0.6493612289428711,0.2860204696655274,0
0.6655981063842773,0.2860204696655274,0
0.6585119247436523,0.2944427490234375,0
0.6504529953002930,0.2944427490234375,0
0.6550695419311523,0.2979681015014649,0
0.6481178283691406,0.2979681015014649,0
0.6598588943481445,0.2869262695312500,0
0.6672832489013671,0.2869262695312500,0
0.6582469940185547,0.2932977676391602,0
0.6520328521728516,0.2932977676391602,0
0.6497125625610352,0.2863489151000976,0
0.6658424377441406,0.2863489151000976,0
0.6587882995605469,0.2947523117065430,0
0.6506029129028320,0.2947523117065430,0
0.6552234649658203,0.2980939865112305,0
0.6480039596557617,0.2980939865112305,0
0.6597518920898438,0.2866407394409179,0
0.6669164657592773,0.2866407394409179,0
0.6573760986328124,0.2928171157836914,0
0.6506486892700195,0.2928171157836914,0
0.6480863571166992,0.2848846435546875,0
0.6600849151611328,0.2848846435546875,0
0.6566528320312500,0.2930213928222656,0
0.6470746994018555,0.2930213928222656,0
0.6512254714965821,0.2953571319580078,0
0.6433090209960938,0.2953571319580078,0
0.6550975799560547,0.2828733444213867,0
0.6621854782104492,0.2828733444213867,0
0.6522096633911133,0.2888231277465820,0
0.6458850860595703,0.2888231277465820,0
0.6437410354614258,0.2818296432495117,0
0.6590595245361328,0.2818296432495117,0
0.6524625778198242,0.2901615142822265,0
0.6446170806884766,0.2901615142822265,0
0.6493795394897460,0.2935255050659180,0
0.6422447204589844,0.2935255050659180,0
0.6540922164916992,0.2824184417724609,0
0.6618404388427734,0.2824184417724609,0
0.6525770187377929,0.2891080856323242,0
0.6471570968627930,0.2891080856323242,0
0.6452819824218750,0.2830175399780273,0
0.6603818893432617,0.2830175399780273,0
0.6543886184692382,0.2916137695312500,0
0.6467382431030273,0.2916137695312500,0
0.6515464782714844,0.2952014923095703,0
0.6444196701049805,0.2952014923095703,0
0.6562705993652344,0.2840057373046875,0
0.6640720367431641,0.2840057373046875,0
0.6546175003051757,0.2905941009521484,0
0.6492010116577148,0.2905941009521484,0
0.6473945617675781,0.2844514846801758,0
0.6621202468872071,0.2844514846801758,0
0.6561143875122070,0.2929830551147461,0
0.6483221054077148,0.2929830551147461,0
0.6529403686523437,0.2962228775024414,0
0.6456573486328124,0.2962228775024414,0
0.6574195861816406,0.2847885131835937,0
0.6651266098022460,0.2847885131835937,0
0.6553928375244140,0.2912961959838867,0
0.6500484466552734,0.2912961959838867,0
0.6482334136962891,0.2852645874023437,0
0.6626398086547851,0.2852645874023437,0
0.6568737030029297,0.2936496734619141,0
0.6491861343383789,0.2936496734619141,0
0.6538490295410156,0.2968637466430664,0
0.6465076446533203,0.2968637466430664,0
0.6582160949707031,0.2853258132934570,0
0.6659723281860351,0.2853258132934570,0
0.6561744689941406,0.2918546676635742,0
0.6506933212280274,0.2918546676635742,0
0.6489795684814453,0.2857910156250000,0
0.6633504867553711,0.2857910156250000,0
0.6574556350708007,0.2941497802734375,0
0.6497388839721679,0.2941497802734375,0
0.6545259475708007,0.2973226547241211,0
0.6469350814819336,0.2973226547241211,0
0.6585548400878906,0.2855346679687500,0
0.6662767410278320,0.2855346679687500,0
0.6562877655029297,0.2919977188110351,0
0.6509473800659179,0.2919977188110351,0
0.6493452072143554,0.2861268997192383,0
0.6631290435791015,0.2861268997192383,0
0.6575448989868163,0.2943592071533203,0
0.6499259948730468,0.2943592071533203,0
0.6545431137084960,0.2974765777587891,0
0.6469482421875000,0.2974765777587891,0
0.6584535598754883,0.2854923248291015,0
0.6662309646606445,0.2854923248291015,0
0.6562957763671875,0.2920440673828125,0
0.6510023117065430,0.2920440673828125,0
0.6493400573730469,0.2864301681518555,0
0.6631645202636719,0.2864301681518555,0
0.6576656341552735,0.2944295883178711,0
0.6500341415405273,0.2944295883178711,0
0.6547983169555663,0.2975830078125000,0
0.6470890045166016,0.2975830078125000,0
0.6587093353271484,0.2855913162231445,0
0.6664867401123047,0.2855913162231445,0
0.6564479827880859,0.2921979904174805,0
0.6512929916381835,0.2921979904174805,0
0.6498476028442383,0.2868799209594726,0
0.6634145736694336,0.2868799209594726,0
0.6581485748291015,0.2948341369628906,0
0.6504564285278320,0.2948341369628906,0
0.6552572250366211,0.2978914260864258,0
0.6476097106933594,0.2978914260864258,0
0.6591836929321289,0.2860136032104492,0
0.6670869827270508,0.2860136032104492,0
0.6568330764770508,0.2927158355712891,0
0.6517776489257813,0.2927158355712891,0
0.6503013610839844,0.2873863220214843,0
0.6637842178344726,0.2873863220214843,0
0.6586532592773438,0.2953605651855469,0
0.6508895874023437,0.2953605651855469,0
0.6558631896972656,0.2984018325805664,0
0.6480943679809570,0.2984018325805664,0
0.6596923828125000,0.2863002777099609,0
0.6677570343017578,0.2863002777099609,0
0.6573726654052734,0.2930883407592773,0
0.6523172378540039,0.2930883407592773,0
0.6509239196777343,0.2879550933837891,0
0.6641378402709961,0.2879550933837891,0
0.6591585159301757,0.2957267761230469,0
0.6514858245849610,0.2957267761230469,0
0.6564096450805664,0.2987211227416992,0
0.6485710144042969,0.2987211227416992,0
0.6599887847900391,0.2866636276245117,0
0.6681129455566406,0.2866636276245117,0
0.6577960968017578,0.2934345245361328,0
0.6526903152465821,0.2934345245361328,0
0.6514755249023437,0.2885931015014648,0
0.6643501281738281,0.2885931015014648,0
0.6596105575561523,0.2961679458618164,0
0.6519229888916015,0.2961679458618164,0
0.6567981719970702,0.2989007949829102,0
0.6488737106323242,0.2989007949829102,0
0.6603395462036132,0.2869256973266601,0
0.6684780120849609,0.2869256973266601,0
0.6581130981445312,0.2937812805175781,0
0.6531097412109375,0.2937812805175781,0
0.6644468307495117,0.2890434265136719,0
0.6637567520141602,0.2946722030639649,0
0.6553716659545898,0.2923433303833008,0
0.6600488662719727,0.2901609420776367,0
0.6539045333862304,0.2953113555908203,0
0.6531669616699218,0.2963979721069336,0
0.6595178604125976,0.2953760147094727,0
0.6523469924926758,0.2895544052124023,0
0.6603916168212890,0.2894496917724609,0
0.6730796813964843,0.2927152633666992,0
0.6576272964477539,0.2991582870483399,0
0.6609895706176757,0.2874910354614258,0
0.6588649749755859,0.2859947204589844,0
0.6538604736328125,0.2943363189697266,0
0.6526885986328125,0.2900568008422851,0
0.6606794357299804,0.2971561431884766,0
0.6556806564331055,0.2930431365966797,0
0.6605815887451172,0.2907136917114257,0
0.6536453247070312,0.3045656204223633,0
0.6524637222290038,0.2970766067504882,0
0.6600431442260742,0.2956855773925781,0
0.6648548126220702,0.2956798553466797,0
0.6609764099121094,0.2975223541259766,0
0.6585044860839844,0.2976287841796875,0
0.6546369552612304,0.2961565017700195,0
0.6614850997924805,0.2878549575805664,0
0.6594984054565429,0.2948919296264648,0
0.6532997131347656,0.3083662033081054,0
0.6650190353393555,0.2908390045166016,0
0.6608505249023438,0.2869234085083008,0
0.6516809463500977,0.2936159133911133,0
0.6581205368041992,0.2940330505371094,0
0.6614948272705078,0.2828853607177734,0
0.6506801605224609,0.3007684707641601,0
0.6687091827392578,0.2896860122680664,0
0.6551673889160156,0.2916515350341797,0
0.6472457885742188,0.2924039840698242,0
0.6527315139770508,0.2895893096923828,0
0.6461574554443359,0.3033067703247070,0
0.6483421325683594,0.2905763626098632,0
0.6541048049926758,0.2923336029052734,0
0.6515384674072265,0.2939907073974609,0
0.6553876876831054,0.2861097335815430,0
0.6646717071533202,0.2823886871337891,0
0.6536001205444336,0.2905448913574218,0
0.6470323562622070,0.2843925476074219,0
0.6591505050659180,0.2845956802368164,0
0.6511562347412109,0.2959859848022461,0
0.6441576004028320,0.2978118896484375,0
0.6576524734497070,0.2938894271850586,0
0.6489784240722656,0.2931020736694336,0
0.6565486907958984,0.2821506500244140,0
0.6483976364135742,0.3102687835693359,0
0.6705614089965820,0.2850460052490234,0
0.6599138259887695,0.2974193572998047,0
0.6542736053466797,0.2995365142822266,0
0.6595287322998047,0.2860021591186523,0
0.6685586929321289,0.2848405838012695,0
0.6484079360961914,0.2934591293334961,0
0.6596786499023437,0.2960351943969726,0
0.6496170043945312,0.3113393783569336,0
0.6611034393310546,0.2847095489501953,0
0.6461334228515625,0.2981185913085938,0
0.6538015365600586,0.2985752105712891,0
0.6606073379516602,0.2867660522460938,0
0.6493635177612305,0.3118772506713867,0
0.6562574386596679,0.2941526412963867,0
0.6547325134277343,0.2966199874877929,0
0.6502613067626953,0.2868232727050781,0
0.6617219924926757,0.2985454559326172,0
0.6556646347045898,0.3008771896362304,0
0.6611148834228515,0.2869617462158203,0
0.6484954833984374,0.2969638824462891,0
0.6565927505493164,0.2944261550903320,0
0.6593187332153320,0.2953674316406250,0
0.6508129119873046,0.2870847702026367,0
0.6636909484863281,0.2877233505249023,0
0.6556468963623047,0.3011655807495117,0
0.6795249938964844,0.2904253005981445,0
0.6611955642700195,0.2970977783203125,0
0.6497303009033203,0.3121639251708984,0
0.6564760208129883,0.2946304321289062,0
0.6557390213012695,0.2967287063598633,0
0.6510503768920898,0.2874200820922851,0
0.6622518539428711,0.2987915039062500,0
0.6557378768920898,0.3013326644897461,0
0.6484863281250000,0.2973392486572266,0
0.6499786376953125,0.2947998046875000,0
0.6598114013671875,0.2840229034423828,0
0.6514165878295898,0.3134262084960938,0
0.6728141784667968,0.2877576828002930,0
0.6474002838134766,0.2990215301513672,0
0.6559890747070313,0.2908086776733398,0
0.6618524551391601,0.2977003097534179,0
0.6633304595947266,0.2855684280395508,0
0.6602994918823242,0.2843988418579101,0
0.6508855819702148,0.2962240219116211,0
0.6731277465820312,0.2883991241455078,0
0.6648542404174804,0.2975337982177734,0
0.6563810348510742,0.2912332534790039,0
0.6560457229614257,0.3038137435913086,0
0.6493000030517578,0.2981792449951172,0
0.6509582519531250,0.2955533981323242,0
0.6607864379882812,0.2847587585449219,0
0.6526771545410156,0.3147502899169922,0
0.6736770629882812,0.2889049530029297,0
0.6486763000488281,0.2997476577758789,0
0.6569881439208984,0.2916017532348633,0
0.6628606796264648,0.2985334396362305,0
0.6642957687377929,0.2867031097412109,0
0.6614061355590820,0.2850271224975586,0
0.6614061355590820,0.2971939086914062,0
0.6532030105590820,0.2895109176635742,0
0.6659545898437500,0.2893112182617187,0
0.6572999954223633,0.2919811248779297,0
0.6573440551757812,0.3039321899414062,0
0.6501348495483398,0.2989076614379882,0
0.6517702102661133,0.2963092803955078,0
0.6617912292480469,0.2852937698364258,0
0.6537832260131836,0.3159267425537109,0
0.6743682861328125,0.2900012969970703,0
0.6495626449584960,0.3002729415893555,0
0.6576175689697266,0.2921545028686524,0
0.6636285781860352,0.2992275238037109,0
0.6648668289184571,0.2876523971557617,0
0.6621912002563476,0.2855089187622070,0
0.6526588439941406,0.2980121612548828,0
0.6747035980224609,0.2903823852539062,0
0.6669130325317383,0.2993282318115234,0
0.6579008102416992,0.2924057006835937,0
0.6584329605102539,0.2924057006835937,0
0.6505880355834961,0.2995708465576172,0
0.6652582168579101,0.2877662658691406,0
0.6545562744140625,0.2907165527343750,0
0.6672243118286133,0.2996286392211914,0
0.6827911376953125,0.2998535156250000,0
0.6630832672119140,0.2987829208374023,0
0.6564554214477539,0.2887493133544922,0
0.6511762619018554,0.2888128280639649,0
0.6615406036376953,0.2993614196777344,0
0.6662395477294921,0.2891572952270507,0
0.6586944580078125,0.3003587722778320,0
0.6648302078247070,0.2898382186889648,0
0.6530450820922852,0.3145626068115234,0
0.6651609420776367,0.2992183685302734,0
0.6555192947387695,0.3001459121704101,0
0.6656438827514648,0.3008960723876953,0
0.6511241912841796,0.2992498397827149,0
0.6631198883056640,0.2991416931152344,0
0.6555765151977538,0.2959487915039062,0
0.6612236022949218,0.3142244338989258,0
0.6628829956054687,0.2863374710083008,0
0.6521707534790039,0.2999250411987305,0
0.6577726364135742,0.2839033126831055,0
0.6455692291259766,0.3087530136108398,0
0.6548967361450195,0.2934322357177734,0
0.6609975814819335,0.2959682464599609,0
0.6514131546020507,0.2959682464599609,0
0.6536378860473633,0.2947608947753906,0
0.6464893341064453,0.2947608947753906,0
0.6596620559692382,0.2837173461914063,0
0.6695823669433594,0.2837173461914063,0
0.6578865051269531,0.2951505661010742,0
0.6483724594116210,0.2951505661010742,0
0.6509571075439453,0.2877799987792969,0
0.6704029083251953,0.2877799987792969,0
0.6616676330566406,0.2979040145874023,0
0.6471256256103516,0.2979040145874023,0
0.6562448501586914,0.2964380264282226,0
0.6606439590454102,0.2964380264282226,0
0.6619892120361328,0.2854757308959961,0
0.6719787597656249,0.2854757308959961,0
0.6599842071533203,0.2967573165893554,0
0.6502916336059570,0.2967573165893554,0
0.6528877258300781,0.2891309738159180,0
0.6720079421997071,0.2891309738159180,0
0.6631696701049804,0.2989803314208984,0
0.6484199523925781,0.2989803314208984,0
0.6576456069946289,0.2972482681274414,0
0.6616807937622070,0.2972482681274414,0
0.6628870010375977,0.2861772537231445,0
0.6729366302490234,0.2861772537231445,0
0.6607870101928711,0.2975063323974609,0
0.6510927200317382,0.2975063323974609,0
0.6725933074951171,0.2899520874023437,0
0.6657222747802735,0.2881582260131836,0
0.6657222747802735,0.2997276306152344,0
0.6556835174560547,0.2997276306152344,0
0.6586189270019531,0.2977272033691406,0
0.6507831573486328,0.2977272033691406,0
0.6636028289794922,0.2867975234985352,0
0.6737297058105468,0.2867975234985352,0
0.6615680694580078,0.2980562210083008,0
0.6517118453979492,0.2980562210083008,0
0.6543640136718750,0.2904716491699219,0
0.6729887008666992,0.2904716491699219,0
0.6642871856689453,0.3001996994018555,0
0.6497011184692383,0.3001996994018555,0
0.6589742660522461,0.2978090286254882,0
0.6509943008422852,0.2978090286254882,0
0.6636966705322266,0.2869794845581055,0
0.6739076614379883,0.2869794845581055,0
0.6616132736206054,0.2982170104980469,0
0.6516494750976562,0.2982170104980469,0
0.6545042037963867,0.2905265808105469,0
0.6729309082031250,0.2905265808105469,0
0.6642677307128906,0.3002735137939453,0
0.6496656417846679,0.3002735137939453,0
0.6591316223144531,0.2976625442504883,0
0.6508970260620117,0.2976625442504883,0
0.6635845184326171,0.2870435714721680,0
0.6738521575927734,0.2870435714721680,0
0.6615165710449219,0.2982810974121093,0
0.6514635086059570,0.2982810974121093,0
0.6544481277465820,0.2906187057495117,0
0.6727575302124024,0.2906187057495117,0
0.6641338348388671,0.3004394531250000,0
0.6554769515991211,0.3004394531250000,0
0.6590938568115234,0.2976528167724609,0
0.6508609771728515,0.2976528167724609,0
0.6637561798095702,0.2873828887939453,0
0.6742212295532226,0.2873828887939453,0
0.6620435714721680,0.2986347198486328,0
0.6520946502685546,0.2986347198486328,0
0.6550712585449219,0.2910203933715820,0
0.6666131973266601,0.2910203933715820,0
0.6646488189697265,0.3007890701293945,0
0.6502481460571289,0.3007890701293945,0
0.6596878051757812,0.2979532241821289,0
0.6511264801025390,0.2979532241821289,0
0.6642511367797851,0.2877605438232422,0
0.6747522354125977,0.2877605438232422,0
0.6648021697998047,0.2849447250366211,0
0.6556961059570312,0.2974508285522461,0
0.6673948287963867,0.2994941711425781,0
0.6563346862792968,0.2902547836303711,0
0.6603750228881836,0.2996566772460937,0
0.6649475097656250,0.2882749557495117,0
0.6629613876342774,0.2995462417602539,0
0.6654693603515625,0.2919450759887695,0
0.6678846359252929,0.2998535156250000,0
0.6822343826293945,0.2903600692749023,0
0.6637498855590820,0.2999307632446289,0
0.6654167175292969,0.2886508941650390,0
0.6633092880249023,0.2998603820800781,0
0.6746114730834961,0.2922506332397461,0
0.6660261154174805,0.3020267486572266,0
0.6639610290527344,0.3001699447631836,0
0.6525209426879882,0.2981019973754883,0
0.6662269592285156,0.3023626327514649,0
0.6567455291748047,0.3073608398437500,0
0.6641538619995117,0.3003770828247070,0
0.6660575866699219,0.3013927459716797,0
0.6575157165527343,0.2928508758544922,0
0.6523000717163085,0.3026876449584961,0
0.6644096374511719,0.2894411087036133,0
0.6665388107299804,0.3017469406127929,0
0.6642139434814452,0.3007856369018554,0
0.6578241348266601,0.2932651519775391,0
0.6666532516479492,0.3028512954711914,0
0.6569458007812500,0.2908493041992187,0
0.6646219253540039,0.3008262634277344,0
0.6777917861938476,0.2901288986206055,0
0.6542461395263671,0.3010992050170898,0
0.6757123947143554,0.2936239242553711,0
0.6570922851562500,0.3084331512451172,0
0.6830480575561523,0.3010740280151367,0
0.6671579360961913,0.2900293350219726,0
0.6676660537719726,0.2985958099365234,0
0.6586235046386718,0.3014036178588867,0
0.6672048568725586,0.3034057617187500,0
0.6650093078613281,0.2899108886718750,0
0.6672866821289062,0.3141283035278320,0
0.6647632598876952,0.2905889511108398,0
0.6540430068969726,0.2935821533203125,0
0.6690896987915039,0.3006637573242187,0
0.6806882858276367,0.2975606918334961,0
0.6489429473876953,0.2990261077880859,0
0.6533523559570312,0.2998615264892578,0
0.6627960205078125,0.2898799896240234,0
0.6641035079956055,0.2855421066284179,0
0.6500936508178711,0.2859306335449219,0
0.6579334259033203,0.2959859848022461,0
0.6603767395019531,0.2852434158325195,0
0.6479141235351562,0.2931844711303711,0
0.6525747299194335,0.3153430938720703,0
0.6525747299194335,0.2894073486328125,0
0.6609363555908203,0.2966817855834961,0
0.6771909713745117,0.2864868164062500,0
0.6577926635742187,0.2864868164062500,0
0.6595167160034180,0.2972024917602539,0
0.6621322631835938,0.2972024917602539,0
0.6495534896850585,0.2995033264160156,0
0.6532264709472656,0.2995033264160156,0
0.6635936737060547,0.2947437286376953,0
0.6643941879272460,0.2947437286376953,0
0.6657835006713867,0.2983583450317382,0
0.6534324645996094,0.2983583450317382,0
0.6525941848754883,0.2879528045654297,0
0.6789608001708984,0.2879528045654297,0
0.6613523483276367,0.2984516143798828,0
0.6494224548339843,0.2984516143798828,0
0.6515802383422852,0.3007810592651367,0
0.6546747207641601,0.3007810592651367,0
0.6650276184082031,0.2955379486083984,0
0.6658761978149413,0.2955379486083984,0
0.6668603897094726,0.2991250991821289,0
0.6544395446777344,0.2991250991821289,0
0.6534181594848633,0.2886754989624024,0
0.6797103881835938,0.2886754989624024,0
0.6621105194091796,0.2990919113159179,0
0.6499723434448242,0.2990919113159179,0
0.6524099349975586,0.3014322280883789,0
0.6553390502929687,0.3014322280883789,0
0.6658750534057617,0.2958835601806640,0
0.6668970108032226,0.2958835601806640,0
0.6674228668212890,0.2996492385864258,0
0.6549934387207031,0.2996492385864258,0
0.6537351608276367,0.2890039443969726,0
0.6801721572875976,0.2890039443969726,0
0.6625511169433593,0.2994935989379883,0
0.6504203796386718,0.2994935989379883,0
0.6530588150024413,0.3018957138061523,0
0.6556840896606445,0.3018957138061523,0
0.6661994934082031,0.2958927154541016,0
0.6673679351806641,0.2958927154541016,0
0.6674142837524414,0.2998220443725586,0
0.6549242019653320,0.2998220443725586,0
0.6536911010742187,0.2890439987182617,0
0.6801183700561523,0.2890439987182617,0
0.6625671386718750,0.2995176315307617,0
0.6502361297607422,0.2995176315307617,0
0.6530839920043945,0.3018779754638672,0
0.6553224563598633,0.3018779754638672,0
0.6660118103027344,0.2956729888916015,0
0.6674022674560547,0.2956729888916015,0
0.6670183181762696,0.2997705459594727,0
0.6547760009765625,0.2997705459594727,0
0.6535097122192383,0.2889919281005859,0
0.6799369812011719,0.2889919281005859,0
0.6624160766601562,0.2994106292724609,0
0.6500667572021485,0.2994106292724609,0
0.6531887054443359,0.3019832611083984,0
0.6553058624267578,0.3019832611083984,0
0.6660964965820312,0.2955070495605469,0
0.6676792144775391,0.2955070495605469,0
0.6669067382812500,0.2998174667358398,0
0.6547611236572265,0.2998174667358398,0
0.6533363342285156,0.2890995025634766,0
0.6798151016235351,0.2890995025634766,0
0.6632188796997071,0.2991062164306640,0
0.6511310577392578,0.2991062164306640,0
0.6554912567138672,0.3032752990722656,0
0.6530004501342773,0.3032752990722656,0
0.6656438827514648,0.2938837051391601,0
0.6707576751708985,0.2938837051391601,0
0.6672037124633788,0.2995010375976562,0
0.6558860778808594,0.2995010375976562,0
0.6523298263549805,0.2910009384155273,0
0.6751499176025391,0.2910009384155273,0
0.6621740341186523,0.2987045288085937,0
0.6537076950073242,0.2987045288085937,0
0.6568428039550781,0.3035408020019531,0
0.6530010223388671,0.3035408020019531,0
0.6655529022216796,0.2940130233764648,0
0.6716222763061523,0.2940130233764648,0
0.6670383453369141,0.2999444961547851,0
0.6568227767944336,0.2999444961547851,0
0.6533363342285156,0.2905208587646484,0
0.6779308319091797,0.2905208587646484,0
0.6634220123291016,0.3002580642700195,0
0.6507940292358398,0.3002580642700195,0
0.6548583984374999,0.3030447006225586,0
0.6562889099121093,0.3030447006225586,0
0.6670978546142577,0.2958286285400391,0
0.6689764022827148,0.2958286285400391,0
0.6674617767333985,0.3007501602172851,0
0.6557275772094726,0.3007501602172851,0
0.6542175292968749,0.2898714065551758,0
0.6808250427246093,0.2898714065551758,0
0.6638832092285156,0.3005962371826172,0
0.6511190414428710,0.3005962371826172,0
0.6556274414062500,0.3034418106079101,0
0.6566385269165039,0.3034418106079101,0
0.6671012878417969,0.2950166702270507,0
0.6710609436035156,0.2950166702270507,0
0.6676174163818359,0.3010356903076172,0
0.6558906555175781,0.3010356903076172,0
0.6543348312377929,0.2901088714599609,0
0.6808725357055664,0.2901088714599609,0
0.6639564514160156,0.3008234024047852,0
0.6511899948120117,0.3008234024047852,0
0.6568044662475586,0.3043664932250976,0
0.6548555374145507,0.3043664932250976,0
0.6664054870605468,0.2940988540649414,0
0.6728593826293945,0.2940988540649414,0
0.6675001144409179,0.3001962661743164,0
0.6578561782836914,0.3001962661743164,0
0.6539720535278321,0.2920583724975586,0
0.6754932403564453,0.2920583724975586,0
0.6635450363159180,0.2999485015869141,0
0.6541992187500000,0.2999485015869141,0
0.6588689804077148,0.3046663284301758,0
0.6537809371948242,0.3046663284301758,0
0.6660192489624023,0.2942104339599609,0
0.6726671218872070,0.2942104339599609,0
0.6669530868530273,0.3000394821166992,0
0.6581388473510742,0.3000394821166992,0
0.6542644500732422,0.2928668975830078,0
0.6733755111694336,0.2928668975830078,0
0.6632589340209961,0.2998340606689453,0
0.6558723449707031,0.2998340606689453,0
0.6594532012939452,0.3046279907226562,0
0.6540281295776367,0.3046279907226562,0
0.6658189773559570,0.2943185806274414,0
0.6725458145141602,0.2943185806274414,0
0.6667018890380859,0.3001224517822266,0
0.6582984924316406,0.3001224517822266,0
0.6544481277465820,0.2930791854858398,0
0.6732364654541015,0.2930791854858398,0
0.6634757995605468,0.3000486373901367,0
0.6560239791870117,0.3000486373901367,0
0.6598119735717773,0.3049152374267578,0
0.6540859222412109,0.3049152374267578,0
0.6657297134399414,0.2945102691650390,0
0.6724994659423827,0.2945102691650390,0
0.6663911819458007,0.3002351760864257,0
0.6584106445312500,0.3002351760864257,0
0.6542724609375000,0.2932067871093750,0
0.6728902816772461,0.2932067871093750,0
0.6633602142333984,0.3000246047973633,0
0.6555833816528320,0.3000246047973633,0
0.6596031188964844,0.3045862197875976,0
0.6535057067871094,0.3045862197875976,0
0.6646110534667968,0.2937572479248047,0
0.6712778091430663,0.2937572479248047,0
0.6647232055664062,0.2991331100463867,0
0.6565332412719727,0.2991331100463867,0
0.6521913528442382,0.2914667129516602,0
0.6700389862060546,0.2914667129516602,0
0.6602560043334961,0.2977100372314453,0
0.6517925262451172,0.2977100372314453,0
0.6555341720581055,0.3017509460449219,0
0.6492742538452149,0.3017509460449219,0
0.6605192184448242,0.2906101226806641,0
0.6671653747558594,0.2906101226806641,0
0.6606399536132812,0.2961496353149414,0
0.6521495819091797,0.2961496353149414,0
0.6482957839965821,0.2886365890502929,0
0.6673650741577148,0.2886365890502929,0
0.6579477310180664,0.2960048675537109,0
0.6499351501464844,0.2960048675537109,0
0.6542284011840820,0.3008926391601562,0
0.6485063552856445,0.3008926391601562,0
0.6602302551269531,0.2903720855712891,0
0.6674045562744141,0.2903720855712891,0
0.6611858367919922,0.2967573165893554,0
0.6530759811401367,0.2967573165893554,0
0.6494052886962890,0.2889043807983399,0
0.6705568313598632,0.2889043807983399,0
0.6601890563964844,0.2982467651367187,0
0.6497755050659180,0.2982467651367187,0
0.6549825668334961,0.3020050048828125,0
0.6531915664672852,0.3020050048828125,0
0.6637212753295898,0.2934150695800781,0
0.6669301986694336,0.2934150695800781,0
0.6632492065429687,0.2992395401000976,0
0.6528625488281250,0.2992395401000976,0
0.6512512207031250,0.2881181716918945,0
0.6776292800903320,0.2881181716918945,0
0.6623353958129883,0.3000074386596679,0
0.6490545272827148,0.3000074386596679,0
0.6549259185791015,0.3030561447143554,0
0.6543680191040039,0.3030561447143554,0
0.6648359298706055,0.2939489364624023,0
0.6680402755737305,0.2939489364624023,0
0.6640462875366211,0.2999187469482422,0
0.6538335800170898,0.2999187469482422,0
0.6522760391235352,0.2886955261230469,0
0.6786432266235352,0.2886955261230469,0
0.6633052825927734,0.3007982254028320,0
0.6498109817504882,0.3007982254028320,0
0.6556680679321288,0.3037118911743164,0
0.6548664093017578,0.3037118911743164,0
0.6655654907226562,0.2943866729736328,0
0.6688768386840820,0.2943866729736328,0
0.6645183563232422,0.3003845214843750,0
0.6541900634765625,0.3003845214843750,0
0.6527635574340820,0.2890325546264648,0
0.6789836883544922,0.2890325546264648,0
0.6638019561767577,0.3010889053344726,0
0.6500164031982422,0.3010889053344726,0
0.6558895111083984,0.3039482116699219,0
0.6549282073974609,0.3039482116699219,0
0.6657297134399414,0.2943386077880859,0
0.6690370559692382,0.2943386077880859,0
0.6642906188964843,0.3003410339355468,0
0.6540178298950196,0.3003410339355468,0
0.6526187896728516,0.2889421463012695,0
0.6786518096923828,0.2889421463012695,0
0.6637035369873047,0.3011346817016601,0
0.6498304367065429,0.3011346817016601,0
0.6557962417602539,0.3039482116699219,0
0.6545734405517578,0.3039482116699219,0
0.6689683914184570,0.2942436218261719,0
0.6559146881103516,0.2962686538696289,0
0.6525032043457031,0.2888689041137695,0
0.6559278488159179,0.3041101455688476,0
0.6660787582397460,0.2965633392333984,0
0.6639112472534180,0.3004972457885742,0
0.6527275085449219,0.2890874862670899,0
0.6640989303588867,0.2898920059204101,0
0.6502292633056640,0.3017486572265625,0
0.6564645767211914,0.3044311523437500,0
0.6663763046264648,0.2944410324096680,0
0.6562305450439453,0.2972717285156250,0
0.6651454925537109,0.2873176574707031,0
0.6547542572021484,0.2894256591796875,0
0.6639255523681641,0.2999891281127929,0
0.6635478973388672,0.2930997848510742,0
0.6568857192993164,0.3047430038452149,0
0.6668260574340820,0.2885330200195312,0
0.6644393920898437,0.2895469665527344,0
0.6545482635498047,0.3010608673095703,0
0.6791719436645508,0.2896734237670898,0
0.6645200729370117,0.3003433227539062,0
0.6637149810791015,0.2935861587524414,0
0.6572278976440430,0.3116615295410156,0
0.6671081542968750,0.2948055267333984,0
0.6562402725219726,0.3201524734497070,0
0.6546186447143555,0.3012926101684570,0
0.6537889480590821,0.2899126052856445,0
0.6651391983032227,0.3006048202514648,0
0.6637264251708984,0.3013114929199219,0
0.6553819656372070,0.3053621292114257,0
0.6659854888916016,0.3035041809082031,0
0.6656461715698242,0.2985992431640625,0
0.6645870208740234,0.3014968872070312,0
0.6540550231933594,0.3135297775268555,0
0.6654487609863281,0.3009057998657226,0
0.6654487609863281,0.3032363891601562,0
0.6577749252319336,0.3056528091430664,0
0.6677541732788086,0.2895401000976562,0
0.6718660354614258,0.2950155258178711,0
0.6646133422851562,0.3016084671020507,0
0.6544143676757812,0.2903783798217773,0
0.6661159515380859,0.3012050628662109,0
0.6638597488403321,0.2946968078613281,0
0.6580072402954101,0.3124116897583007,0
0.6679481506347656,0.2897844314575195,0
0.6722620010375976,0.2949892044067383,0
0.6550409317016601,0.3018064498901367,0
0.6661857604980469,0.3035522460937500,0
0.6666023254394531,0.3014688491821289,0
0.6660707473754882,0.3014688491821289,0
0.6583786010742188,0.3127183914184570,0
0.6556806564331055,0.3063388824462890,0
0.6727375030517578,0.2950538635253906,0
0.6563369750976562,0.2994747161865234,0
0.6662784576416015,0.3038738250732422,0
0.6572284698486328,0.3038738250732422,0
0.6547702789306641,0.3016553878784179,0
0.6660844802856445,0.3042423248291016,0
0.6581188201904297,0.3063159942626953,0
0.6661594390869140,0.2944953918457031,0
0.6552320480346679,0.3198160171508789,0
0.6635335922241211,0.2989774703979492,0
0.6553745269775391,0.3028833389282227,0
0.6528619766235352,0.2892969131469726,0
0.6629631042480468,0.3018957138061523,0
0.6599447250366210,0.3007415771484375,0
0.6614307403564453,0.2908573150634766,0
0.6496416091918945,0.3003816604614258,0
0.6497932434082031,0.2949079513549804,0
0.6577943801879883,0.2852502822875976,0
0.6473939895629882,0.3092336654663086,0
0.6718889236450195,0.2850946426391601,0
0.6435567855834960,0.2983182907104492,0
0.6505239486694335,0.3005624771118164,0
0.6585107803344726,0.2885690689086914,0
0.6480508804321289,0.3143983840942383,0
0.6565338134765625,0.2938796997070313,0
0.6507614135742187,0.2985923767089844,0
0.6478872299194336,0.2856204986572266,0
0.6598274230957031,0.2996641159057617,0
0.6571735382080078,0.2997779846191406,0
0.6607704162597656,0.2901998519897461,0
0.6497148513793946,0.2997636795043945,0
0.6582286834716796,0.2961233139038086,0
0.6591053009033203,0.2978330612182617,0
0.6505022048950195,0.2878578186035156,0
0.6631170272827148,0.2878578186035156,0
0.6590955734252929,0.3011798858642578,0
0.6590955734252929,0.2926952362060547,0
0.6623268127441406,0.3008291244506836,0
0.6638900756835937,0.2877971649169922,0
0.6603195190429687,0.2986930847167968,0
0.6621660232543946,0.2986930847167968,0
0.6747465133666992,0.2887910842895507,0
0.6640394210815429,0.2992097854614258,0
0.6595842361450195,0.2934230804443359,0
0.6556715011596680,0.3095626831054688,0
0.6647111892700195,0.2884592056274414,0
0.6704744338989258,0.2916435241699218,0
0.6520803451538085,0.2992710113525390,0
0.6629991531372070,0.3017543792724609,0
0.6648651123046875,0.2997797012329101,0
0.6633916854858398,0.2997797012329101,0
0.6561819076538086,0.3098310470581054,0
0.6519922256469727,0.3045295715332031,0
0.6650917053222656,0.2917459487915039,0
0.6526319503784179,0.2886074066162109,0
0.6520832061767577,0.2994409561157226,0
0.6751779556274414,0.2898387908935547,0
0.6650648117065430,0.3000120162963867,0
0.6597141265869141,0.2941921234130859,0
0.6813703536987304,0.2941921234130859,0
0.6648960113525391,0.3017263412475586,0
0.6648960113525391,0.2916915893554687,0
0.6609375000000000,0.2994724273681640,0
0.6628578186035156,0.2879001617431641,0
0.6649709701538086,0.2925149917602539,0
0.6534055709838867,0.3001270294189453,0
0.6813320159912110,0.2943981170654297,0
0.6562900543212891,0.3045455932617188,0
0.6649801254272460,0.2915605545043945,0
0.6525238037109374,0.3169858932495117,0
0.6629997253417969,0.2995880126953125,0
0.6629997253417969,0.3020736694335938,0
0.6537723541259766,0.3004114151000977,0
0.6637395858764649,0.3030881881713867,0
0.6565692901611327,0.3097177505493164,0
0.6519750595092774,0.3045759201049805,0
0.6526742935180664,0.2917448043823242,0
0.6526742935180664,0.2992406845092773,0
0.6632102966308594,0.3021858215332031,0
0.6528768539428711,0.3153928756713867,0
0.6640583038330078,0.2905397415161133,0
0.6496965408325195,0.3035110473632812,0
0.6639644622802734,0.3048162460327148,0
0.6639644622802734,0.3023265838623047,0
0.6529209136962890,0.2996686935424804,0
0.6617729187011718,0.2894182205200195,0
0.6532144546508789,0.3160234451293945,0
0.6751710891723632,0.2916910171508789,0
0.6501588821411133,0.3038852691650391,0
0.6597209930419922,0.2955825805664062,0
0.6641738891601562,0.3026189804077148,0
0.6657966613769531,0.2902856826782226,0
0.6622323989868164,0.3005361557006836,0
0.6638757705688476,0.2887859344482422,0
0.6664924621582031,0.2935678482055664,0
0.6552206039428711,0.3018350601196289,0
0.6597478866577148,0.2959024429321289,0
0.6644731521606445,0.3028793334960938,0
0.6659030914306641,0.2922689437866211,0
0.6623588562011719,0.2899240493774414,0
0.6640171051025391,0.3026206970214844,0
0.6540819168090820,0.3172216415405273,0
0.6754102706909180,0.2928153991699219,0
0.6650602340698242,0.2916091918945312,0
0.6597158432006835,0.2961421966552734,0
0.6824134826660156,0.2961421966552734,0
0.6646900177001953,0.3031900405883789,0
0.6528854370117188,0.3031900405883789,0
0.6536453247070312,0.3006591796875000,0
0.6600488662719727,0.3006591796875000,0
0.6643598556518554,0.3027442932128906,0
0.6587882995605469,0.3027442932128906,0
0.6669834136962890,0.3024627685546875,0
0.6559295654296875,0.3024627685546875,0
0.6598245620727539,0.2965238571166992,0
0.6825662612915039,0.2965238571166992,0
0.6648942947387695,0.3033571243286133,0
0.6529655456542969,0.3033571243286133,0
0.6538713455200195,0.3009229660034179,0
0.6601295471191406,0.3009229660034179,0
0.6646230697631835,0.3028902053833007,0
0.6593307495117188,0.3028902053833007,0
0.6674177169799804,0.3028707504272461,0
0.6563661575317382,0.3028707504272461,0
0.6599264144897461,0.2967836380004883,0
0.6828729629516601,0.2967836380004883,0
0.6652341842651367,0.3035860061645508,0
0.6531429290771484,0.3035860061645508,0
0.6540985107421875,0.3011627197265625,0
0.6603063583374024,0.3011627197265625,0
0.6648639678955078,0.3030292510986328,0
0.6598468780517578,0.3030292510986328,0
0.6676500320434570,0.3032289505004883,0
0.6566654205322265,0.3032289505004883,0
0.6599390029907226,0.2969020843505859,0
0.6829702377319335,0.2969020843505859,0
0.6654127120971679,0.3037559509277344,0
0.6532539367675781,0.3037559509277344,0
0.6543462753295898,0.3013481140136718,0
0.6603939056396484,0.3013481140136718,0
0.6650905609130859,0.3031997680664062,0
0.6602479934692382,0.3031997680664062,0
0.6678153991699218,0.3034223556518554,0
0.6568204879760742,0.3034223556518554,0
0.6596998214721680,0.2969839096069336,0
0.6828054428100586,0.2969839096069336,0
0.6650362014770508,0.3035808563232422,0
0.6524637222290038,0.3035808563232422,0
0.6535766601562499,0.3008010864257812,0
0.6591413497924804,0.3008010864257812,0
0.6637544631958008,0.3020153045654297,0
0.6587757110595703,0.3020153045654297,0
0.6657285690307617,0.3016828536987304,0
0.6540727615356445,0.3016828536987304,0
0.6562242507934570,0.2941337585449219,0
0.6788343429565430,0.2941337585449219,0
0.6604991912841797,0.2999628067016601,0
0.6474283218383788,0.2999628067016601,0
0.6481693267822265,0.2965158462524414,0
0.6535074234008789,0.2965158462524414,0
0.6581777572631836,0.2973787307739258,0
0.6534542083740235,0.2973787307739258,0
0.6604122161865235,0.2974960327148438,0
0.6491855621337891,0.2974960327148438,0
0.6516420364379882,0.2904396057128906,0
0.6749897003173828,0.2904396057128906,0
0.6571598052978516,0.2972551345825195,0
0.6447120666503906,0.2972551345825195,0
0.6462181091308593,0.2948513031005859,0
0.6521936416625976,0.2948513031005859,0
0.6576427459716797,0.2967298507690430,0
0.6538742065429687,0.2967298507690430,0
0.6609935760498047,0.2978834152221679,0
0.6504901885986328,0.2978834152221679,0
0.6529146194458008,0.2913454055786133,0
0.6767812728881836,0.2913454055786133,0
0.6592208862304687,0.2987085342407226,0
0.6467863082885742,0.2987085342407226,0
0.6483873367309571,0.2963710784912109,0
0.6543479919433594,0.2963710784912109,0
0.6598869323730469,0.2982204437255859,0
0.6563066482543946,0.2982204437255859,0
0.6630403518676757,0.2994163513183594,0
0.6523933410644531,0.2994163513183594,0
0.6545585632324219,0.2925006866455078,0
0.6783308029174805,0.2925006866455078,0
0.6605907440185547,0.2997179031372070,0
0.6480783462524414,0.2997179031372070,0
0.6495946884155274,0.2973426818847656,0
0.6554197311401367,0.2973426818847656,0
0.6610879898071289,0.2988492965698242,0
0.6519515991210937,0.2916109085083008,0
0.6624275207519531,0.3008537292480469,0
0.6482809066772460,0.2928085327148438,0
0.6563255310058593,0.3034103393554687,0
0.6563255310058593,0.3002231597900391,0
0.6624618530273437,0.3002134323120117,0
0.6502069473266602,0.2977495193481445,0
0.6558797836303710,0.2977495193481445,0
0.6616659164428711,0.2991765975952148,0
0.6584283828735351,0.2991765975952148,0
0.6646385192871094,0.3004915237426758,0
0.6539812088012695,0.3004915237426758,0
0.6557613372802734,0.2928474426269531,0
0.6793945312499999,0.2928474426269531,0
0.6617300033569335,0.3005075454711914,0
0.6489412307739257,0.3005075454711914,0
0.6504730224609375,0.2980659484863281,0
0.6560062408447266,0.2980659484863281,0
0.6620292663574219,0.2992698669433594,0
0.6589033126831054,0.2992698669433594,0
0.6647569656372070,0.3005893707275391,0
0.6542186737060547,0.3005893707275391,0
0.6557493209838867,0.2926746368408203,0
0.6794328689575195,0.2926746368408203,0
0.6618392944335937,0.3005104064941406,0
0.6490322113037109,0.3005104064941406,0
0.6505674362182617,0.2982656478881836,0
0.6560302734375000,0.2982656478881836,0
0.6621276855468750,0.2990987777709961,0
0.6592866897583007,0.2990987777709961,0
0.6649789810180664,0.3005979537963867,0
0.6543388366699219,0.3005979537963867,0
0.6557161331176757,0.2925510406494141,0
0.6794334411621094,0.2925510406494141,0
0.6618186950683593,0.3005207061767578,0
0.6489898681640625,0.3005207061767578,0
0.6505062103271484,0.2985809326171875,0
0.6559461593627930,0.2985809326171875,0
0.6623182296752930,0.2991062164306640,0
0.6596059799194336,0.2991062164306640,0
0.6651266098022460,0.3007810592651367,0
0.6545654296875000,0.3007810592651367,0
0.6556652069091796,0.2925281524658203,0
0.6795862197875976,0.2925281524658203,0
0.6619297027587890,0.3006465911865234,0
0.6490201950073242,0.3006465911865234,0
0.6507293701171875,0.2990901947021484,0
0.6561527252197266,0.2990901947021484,0
0.6626649856567383,0.2991983413696289,0
0.6602897644042969,0.2991983413696289,0
0.6653852462768555,0.3009595870971680,0
0.6548429489135742,0.3009595870971680,0
0.6559633255004883,0.2925773620605469,0
0.6798711776733398,0.2925773620605469,0
0.6622112274169921,0.3009893417358399,0
0.6492776870727539,0.3009893417358399,0
0.6510211944580078,0.2996240615844726,0
0.6563146591186523,0.2996240615844726,0
0.6631261825561523,0.2993516921997070,0
0.6609283447265625,0.2993516921997070,0
0.6657360076904296,0.3012674331665039,0
0.6551467895507812,0.3012674331665039,0
0.6560405731201172,0.2927209854125977,0
0.6801790237426758,0.2927209854125977,0
0.6624933242797851,0.3012325286865234,0
0.6495998382568359,0.3012325286865234,0
0.6513719558715820,0.3003456115722656,0
0.6566459655761718,0.3003456115722656,0
0.6637596130371094,0.2996452331542969,0
0.6617889404296875,0.2996452331542969,0
0.6663185119628906,0.3016656875610351,0
0.6556503295898437,0.3016656875610351,0
0.6564565658569336,0.2928663253784179,0
0.6806007385253906,0.2928663253784179,0
0.6630100250244141,0.3016273498535156,0
0.6500215530395508,0.3016273498535156,0
0.6517679214477539,0.3008937835693359,0
0.6569229125976562,0.3008937835693359,0
0.6643598556518554,0.2999473571777344,0
0.6627061843872070,0.2999473571777344,0
0.6668643951416016,0.3019460678100586,0
0.6562036514282227,0.3019460678100586,0
0.6567203521728515,0.2929595947265625,0
0.6809881210327148,0.2929595947265625,0
0.6633693695068359,0.3017297744750976,0
0.6505908966064453,0.3017297744750976,0
0.6523126602172852,0.3015054702758789,0
0.6570728302001952,0.3015054702758789,0
0.6647809982299805,0.2999719619750976,0
0.6634614944458007,0.2999719619750976,0
0.6672666549682617,0.3021497726440430,0
0.6565464019775390,0.3021497726440430,0
0.6568330764770508,0.2929990768432617,0
0.6811271667480469,0.2929990768432617,0
0.6635959625244140,0.3020341873168945,0
0.6510395050048828,0.3020341873168945,0
0.6525976181030273,0.3020399093627930,0
0.6572708129882813,0.3020399093627930,0
0.6651741027832031,0.3000228881835937,0
0.6640691757202148,0.3000228881835937,0
0.6676998138427734,0.3024078369140625,0
0.6567804336547851,0.3024078369140625,0
0.6569795608520508,0.2930465698242187,0
0.6814956665039062,0.2930465698242187,0
0.6639507293701171,0.3021875381469726,0
0.6512649536132812,0.3021875381469726,0
0.6527738571166992,0.3023746490478516,0
0.6575729370117187,0.3023746490478516,0
0.6657108306884766,0.3001419067382812,0
0.6647386550903320,0.3001419067382812,0
0.6680723190307617,0.3025508880615234,0
0.6570493698120117,0.3025508880615234,0
0.6569812774658202,0.2930379867553711,0
0.6815671920776367,0.2930379867553711,0
0.6639942169189453,0.3024427413940430,0
0.6653949737548828,0.3024427413940430,0
0.6528614044189452,0.3029520034790039,0
0.6575065612792969,0.3029520034790039,0
0.6658052444458008,0.3001642227172852,0
0.6649303436279297,0.3001642227172852,0
0.6681095123291015,0.3026905059814453,0
0.6568948745727539,0.3026905059814453,0
0.6566190719604492,0.2929121017456054,0
0.6811786651611328,0.2929121017456054,0
0.6634099960327148,0.3022384643554688,0
0.6507619857788086,0.3022384643554688,0
0.6518697738647461,0.3027208328247070,0
0.6560697555541992,0.3027208328247070,0
0.6644708633422851,0.2991182327270508,0
0.6634843826293945,0.2991182327270508,0
0.6659688949584961,0.3009607315063477,0
0.6538026809692382,0.3009607315063477,0
0.6529781341552734,0.2900836944580078,0
0.6770679473876953,0.2900836944580078,0
0.6591230392456054,0.2989397048950195,0
0.6462753295898437,0.2989397048950195,0
0.6472778320312500,0.2992910385131836,0
0.6510051727294922,0.2992910385131836,0
0.6595344543457031,0.2950035095214844,0
0.6588294982910156,0.2950035095214844,0
0.6611680984497070,0.2972265243530273,0
0.6495065689086914,0.2972265243530273,0
0.6489486694335938,0.2869457244873047,0
0.6738710403442383,0.2869457244873047,0
0.6565315246582031,0.2969879150390625,0
0.6445146560668945,0.2969879150390625,0
0.6460138320922851,0.2985317230224609,0
0.6504364013671875,0.2985317230224609,0
0.6597650527954101,0.2949977874755859,0
0.6599029541015625,0.2949977874755859,0
0.6627336502075195,0.2982198715209961,0
0.6512329101562500,0.2982198715209961,0
0.6508689880371094,0.2883859634399414,0
0.6761278152465821,0.2883859634399414,0
0.6588666915893554,0.2987663269042969,0
0.6470918655395508,0.2987663269042969,0
0.6486511230468750,0.3006002426147461,0
0.6528173446655273,0.3006002426147461,0
0.6622261047363281,0.2966142654418945,0
0.6625814437866211,0.2966142654418945,0
0.6648582458496094,0.2997865676879883,0
0.6531068801879882,0.2997865676879883,0
0.6524991989135742,0.2896333694458008,0
0.6776613235473633,0.2896333694458008,0
0.6604145050048827,0.2998071670532226,0
0.6487506866455078,0.2998071670532226,0
0.6501937866210937,0.3016473770141602,0
0.6538616180419922,0.3016473770141602,0
0.6632835388183593,0.2972259521484375,0
0.6637109756469727,0.2972259521484375,0
0.6657594680786133,0.3004194259643554,0
0.6537557601928711,0.3004194259643554,0
0.6530628204345703,0.2901220321655273,0
0.6782049179077149,0.2901220321655273,0
0.6610279083251953,0.3004165649414062,0
0.6495162963867187,0.3004165649414062,0
0.6510749816894531,0.3023523330688476,0
0.6545494079589843,0.3023523330688476,0
0.6642442703247070,0.2976390838623047,0
0.6648788452148438,0.2976390838623047,0
0.6667007446289063,0.3009550094604492,0
0.6546741485595703,0.3009550094604492,0
0.6537694931030273,0.2904476165771484,0
0.6789075851440429,0.2904476165771484,0
0.6617454528808594,0.3008079528808594,0
0.6501279830932617,0.3008079528808594,0
0.6519092559814453,0.3027751922607422,0
0.6550220489501953,0.3027751922607422,0
0.6648445129394531,0.2976139068603516,0
0.6655866622924804,0.2976139068603516,0
0.6668764114379883,0.3010734558105468,0
0.6547330856323242,0.3010734558105468,0
0.6537031173706055,0.2905363082885742,0
0.6788434982299805,0.2905363082885742,0
0.6617036819458008,0.3007644653320312,0
0.6501491546630859,0.3007644653320312,0
0.6521467208862305,0.3028289794921875,0
0.6548080444335938,0.3028289794921875,0
0.6647804260253906,0.2973844528198242,0
0.6657011032104492,0.2973844528198242,0
0.6666698455810547,0.3010465621948242,0
0.6546375274658203,0.3010465621948242,0
0.6535697937011719,0.2905145645141601,0
0.6787513732910156,0.2905145645141601,0
0.6617506027221679,0.3008125305175781,0
0.6501640319824219,0.3008125305175781,0
0.6524751663208007,0.3029748916625977,0
0.6549722671508789,0.3029748916625977,0
0.6650476455688477,0.2973644256591797,0
0.6661828994750977,0.2973644256591797,0
0.6666481018066406,0.3012542724609375,0
0.6548080444335938,0.3012542724609375,0
0.6536184310913086,0.2907342910766602,0
0.6789201736450196,0.2907342910766602,0
0.6621431350708008,0.3011209487915039,0
0.6506996154785156,0.3011209487915039,0
0.6532459259033203,0.3034137725830078,0
0.6554517745971680,0.3034137725830078,0
0.6656564712524414,0.2974210739135742,0
0.6669759750366211,0.2974210739135742,0
0.6669513702392578,0.3016559600830078,0
0.6551519393920898,0.3016559600830078,0
0.6540956497192383,0.2910324096679687,0
0.6792314529418945,0.2910324096679687,0
0.6627141952514648,0.3014499664306641,0
0.6511659622192383,0.3014499664306641,0
0.6540590286254883,0.3038629531860351,0
0.6558546066284180,0.3038629531860351,0
0.6661931991577148,0.2976493835449219,0
0.6677083969116211,0.2976493835449219,0
0.6672237396240234,0.3020479202270508,0
0.6557001113891602,0.3020479202270508,0
0.6544132232666016,0.2914426803588867,0
0.6795627593994140,0.2914426803588867,0
0.6630826950073242,0.3018070220947265,0
0.6514400482177735,0.3018070220947265,0
0.6547542572021484,0.3042749404907226,0
0.6562791824340820,0.3042749404907226,0
0.6665187835693359,0.2978004455566406,0
0.6682359695434570,0.2978004455566406,0
0.6673627853393554,0.3023151397705078,0
0.6560005187988281,0.3023151397705078,0
0.6547273635864258,0.2917545318603516,0
0.6797533035278320,0.2917545318603516,0
0.6634260177612304,0.3021858215332031,0
0.6518033981323242,0.3021858215332031,0
0.6553590774536132,0.3047183990478515,0
0.6563507080078125,0.3047183990478515,0
0.6667854309082031,0.2978221893310547,0
0.6687526702880859,0.2978221893310547,0
0.6674074172973633,0.3026544570922852,0
0.6562580108642578,0.3026544570922852,0
0.6548091888427734,0.2920944213867188,0
0.6798145294189453,0.2920944213867188,0
0.6638488769531250,0.3024765014648437,0
0.6521032333374023,0.3024765014648437,0
0.6560960769653320,0.3051120758056641,0
0.6567541122436523,0.3051120758056641,0
0.6672191619873047,0.2979320526123047,0
0.6693437576293945,0.2979320526123047,0
0.6675733566284180,0.3029256820678711,0
0.6565326690673828,0.3029256820678711,0
0.6550672531127929,0.2923061370849609,0
0.6799816131591797,0.2923061370849609,0
0.6642494201660156,0.3027540206909179,0
0.6524253845214844,0.3027540206909179,0
0.6567255020141601,0.3055103302001953,0
0.6570270538330077,0.3055103302001953,0
0.6674606323242187,0.2979417800903320,0
0.6697626113891602,0.2979417800903320,0
0.6676134109497071,0.3031642913818359,0
0.6567249298095703,0.3031642913818359,0
0.6550683975219727,0.2924938201904297,0
0.6800090789794921,0.2924938201904297,0
0.6644044876098633,0.3029788970947265,0
0.6524133682250977,0.3029788970947265,0
0.6568914413452148,0.3057649612426758,0
0.6569377899169921,0.3057649612426758,0
0.6671716690063476,0.2977775573730468,0
0.6694564819335938,0.2977775573730468,0
0.6668397903442382,0.3029331207275390,0
0.6559232711791992,0.3029331207275390,0
0.6540945053100585,0.2918632507324219,0
0.6784807205200195,0.2918632507324219,0
0.6628852844238281,0.3018396377563476,0
0.6504838943481445,0.3018396377563476,0
0.6546781539916992,0.3038377761840820,0
0.6539228439331054,0.3038377761840820,0
0.6637830734252930,0.2951368331909179,0
0.6658475875854492,0.2951368331909179,0
0.6628108978271484,0.2998678207397461,0
0.6519069671630859,0.2998678207397461,0
0.6498905181884765,0.2886880874633789,0
0.6741165161132813,0.2886880874633789,0
0.6588890075683593,0.2987365722656250,0
0.6468080520629883,0.2987365722656250,0
0.6516380310058594,0.3014986038208008,0
0.6510612487792968,0.3014986038208008,0
0.6613105773925781,0.2931982040405273,0
0.6534936904907226,0.3159891128540039,0
0.6648691177368163,0.2934906005859375,0
0.6498682022094726,0.3001567840576172,0
0.6586126327514649,0.2977306365966797,0
0.6483221054077148,0.2977306365966797,0
0.6604442596435547,0.2909620285034180,0
0.6773815155029297,0.2909620285034180,0
0.6620212554931640,0.3007839202880859,0
0.6517839431762695,0.3007839202880859,0
0.6555244445800781,0.2953622817993164,0
0.6666206359863281,0.2953622817993164,0
0.6629179000854492,0.3016542434692382,0
0.6522668838500977,0.3016542434692382,0
0.6607057571411132,0.2992841720581055,0
0.6501617431640625,0.2992841720581055,0
0.6621894836425781,0.2923433303833008,0
0.6792852401733398,0.2923433303833008,0
0.6636445999145507,0.3019117355346679,0
0.6532636642456054,0.3019117355346679,0
0.6566780090332031,0.2964632034301758,0
0.6672632217407226,0.2964632034301758,0
0.6640245437622070,0.3023860931396484,0
0.6534536361694335,0.3023860931396484,0
0.6617666244506836,0.3000177383422851,0
0.6510572433471680,0.3000177383422851,0
0.6631038665771484,0.2931283950805664,0
0.6803775787353515,0.2931283950805664,0
0.6646133422851562,0.3025491714477539,0
0.6541791915893554,0.3025491714477539,0
0.6572622299194336,0.2972545623779297,0
0.6674434661865234,0.2972545623779297,0
0.6646654129028320,0.3028593063354492,0
0.6542867660522461,0.3028593063354492,0
0.6624034881591797,0.3005847930908203,0
0.6516288757324219,0.3005847930908203,0
0.6635387420654296,0.2936748504638672,0
0.6567581176757812,0.3050388336181640,0
0.6654087066650390,0.2897769927978516,0
0.6646671295166016,0.2977163314819336,0
0.6646671295166016,0.3020261764526367,0
0.6773797988891601,0.2911874771118164,0
0.6626117706298827,0.3006774902343750,0
0.6634466171264648,0.2999971389770508,0
0.6651145935058593,0.2944942474365234,0
0.6547525405883788,0.3029668807983398,0
0.6646247863769531,0.2980939865112305,0
0.6646247863769531,0.3020399093627930,0
0.6536596298217773,0.2911731719970703,0
0.6638706207275390,0.2919679641723633,0
0.6516798019409179,0.3025720596313476,0
0.6554065704345703,0.3052963256835937,0
0.6652748107910156,0.3032180786132813,0
0.6572044372558593,0.2984825134277344,0
0.6652536392211914,0.2899829864501953,0
0.6556903839111328,0.3031602859497070,0
0.6637275695800781,0.3011764526367187,0
0.6638998031616211,0.2946905136108398,0
0.6577331542968750,0.3057552337646484,0
0.6663476943969726,0.2964408874511719,0
0.6573978424072265,0.3196849822998047,0
0.6557893753051758,0.3026035308837891,0
0.6544830322265625,0.2918735504150390,0
0.6645624160766601,0.3016387939453125,0
0.6641864776611328,0.3020502090454101,0
0.6711004257202148,0.2966754913330078,0
0.6653326034545898,0.3029520034790039,0
0.6661788940429687,0.3038927078247070,0
0.6654270172119140,0.3020507812500000,0
0.6655557632446288,0.2931318283081055,0
0.6590469360351562,0.3121896743774414,0
0.6669382095336914,0.3066816329956055,0
0.6720462799072265,0.2968769073486328,0
0.6658012390136718,0.3033216476440430,0
0.6666841506958008,0.3042686462402344,0
0.6661926269531250,0.3024993896484375,0
0.6661531448364257,0.2934865951538086,0
0.6595991134643554,0.2963596343994140,0
0.6572336196899414,0.3049976348876953,0
0.6683572769165039,0.2970863342285156,0
0.6660409927368164,0.3036186218261719,0
0.6671207427978515,0.2914466857910156,0
0.6668157577514648,0.2970571517944336,0
0.6665187835693359,0.3028575897216797,0
0.6841106414794922,0.2969003677368164,0
0.6675687789916992,0.3052333831787109,0
0.6686353683471680,0.2927970886230469,0
0.6662298202514648,0.2928108215332031,0
0.6572982788085937,0.3038509368896484,0
0.6795066833496094,0.2934041976928711,0
0.6675041198730468,0.3032426834106445,0
0.6650327682495117,0.3051172256469726,0
0.6678182601928710,0.3078947067260742,0
0.6678182601928710,0.3055332183837891,0
0.6583465576171875,0.3018316268920898,0
0.6664054870605468,0.2930826187133789,0
0.6571174621582031,0.2935295104980469,0
0.6802213668823242,0.2935295104980469,0
0.6543468475341797,0.3059062957763672,0
0.6655660629272461,0.2976854324340820,0
0.6679224014282227,0.3055692672729492,0
0.6690387725830078,0.2928045272827148,0
0.6653680801391602,0.2923347473144531,0
0.6560514450073242,0.3033176422119140,0
0.6771978378295899,0.2917339324951172,0
0.6656759262084960,0.3012783050537109,0
0.6609809875488281,0.2942596435546875,0
0.6555953979492187,0.3092657089233398,0
0.6508855819702148,0.3007101058959961,0
0.6505388259887696,0.2957971572875976,0
0.6579191207885742,0.2862756729125976,0
0.6477184295654297,0.2857177734375000,0
0.6588655471801758,0.2976854324340820,0
0.6546632766723632,0.2976854324340820,0
0.6465093612670898,0.2997299194335937,0
0.6571929931640624,0.2969038009643555,0
0.6474798202514648,0.2934740066528320,0
0.6557310104370117,0.2847061157226562,0
0.6475130081176758,0.3083244323730469,0
0.6704252243041992,0.2855833053588867,0
0.6458375930786132,0.2987966537475586,0
0.6563495635986328,0.2909482955932617,0
0.6598371505737305,0.2989580154418945,0
0.6616928100585937,0.2989580154418945,0
0.6587659835815429,0.2961107254028320,0
0.6587659835815429,0.2979372024536133,0
0.6505456924438476,0.2881336212158203,0
0.6628389358520508,0.2917179107666015,0
0.6588340759277344,0.2932365417480469,0
0.6551811218261718,0.2932365417480469,0
0.6638912200927735,0.3008108139038086,0
0.6638912200927735,0.2918535232543945,0
0.6605798721313476,0.2993671417236328,0
0.6625671386718750,0.2882326126098633,0
0.6643472671508789,0.2927289962768554,0
0.6528860092163086,0.2997110366821289,0
0.6805921554565429,0.2943992614746094,0
0.6564353942871094,0.3047086715698242,0
0.6650602340698242,0.2926277160644531,0
0.6534410476684570,0.3169698715209961,0
0.6637773513793945,0.2894136428833008,0
0.6570625305175781,0.3025691986083984,0
0.6543691635131835,0.3008005142211914,0
0.6641080856323242,0.3035505294799805,0
0.6577062606811523,0.3057043075561524,0
0.6645870208740234,0.3057043075561524,0
0.6542770385742187,0.2933069229125976,0
0.6542770385742187,0.2999170303344726,0
0.6645463943481446,0.3031848907470703,0
0.6665290832519531,0.2941291809082031,0
0.6551548004150390,0.3014854431152343,0
0.6821416854858399,0.2960786819458008,0
0.6583007812500000,0.3059480667114258,0
0.6663608551025391,0.2933618545532227,0
0.6722316741943359,0.2933618545532227,0
0.6645172119140624,0.3011724472045899,0
0.6645172119140624,0.3032318115234375,0
0.6666681289672851,0.3017440795898437,0
0.6647632598876952,0.2920074462890625,0
0.6583065032958985,0.3106521606445312,0
0.6536928176879883,0.3060161590576172,0
0.6725601196289063,0.2934116363525390,0
0.6545024871826172,0.3007942199707031,0
0.6646001815795898,0.3034229278564453,0
0.6548303604125977,0.3159902572631836,0
0.6652004241943359,0.2924629211425781,0
0.6652004241943359,0.3046703338623047,0
0.6588718414306640,0.3062364578247070,0
0.6653726577758788,0.2947483062744141,0
0.6548120498657226,0.3015203475952148,0
0.6633378982543945,0.3015203475952148,0
0.6553670883178710,0.3038080215454101,0
0.6553670883178710,0.2936925888061523,0
0.6523721694946288,0.3053627014160156,0
0.6612545013427734,0.2975933074951172,0
0.6659797668457031,0.3041267395019531,0
0.6674074172973633,0.3041267395019531,0
0.6640817642211914,0.3021726608276367,0
0.6640817642211914,0.3026332855224609,0
0.6562551498413086,0.2946086883544922,0
0.6683670043945312,0.2955717086791992,0
0.6618141174316406,0.3082208633422852,0
0.6604391098022461,0.2982999801635742,0
0.6556348800659180,0.3046983718872070,0
0.6559656143188476,0.3027362823486328,0
0.6646579742431641,0.3031557083129883,0
0.6567878723144531,0.2953565597534180,0
0.6689460754394531,0.2942785263061523,0
0.6535829544067383,0.3065093994140625,0
0.6554363250732421,0.3071651458740234,0
0.6670452117919922,0.3050582885742187,0
0.6563152313232422,0.3191127777099609,0
0.6563152313232422,0.3030956268310547,0
0.6668094635009766,0.3047613143920898,0
0.6618564605712890,0.3047613143920898,0
0.6694885253906250,0.3047229766845703,0
0.6585685729980468,0.3047229766845703,0
0.6620332717895507,0.2991142272949219,0
0.6841970443725586,0.2991142272949219,0
0.6672363281250000,0.3052654266357422,0
0.6558540344238281,0.3052654266357422,0
0.6564617156982422,0.3033519744873047,0
0.6621477127075195,0.3033519744873047,0
0.6668512344360351,0.3049095153808594,0
0.6621385574340820,0.3049095153808594,0
0.6695714950561523,0.3050130844116211,0
0.6588066101074218,0.3050130844116211,0
0.6618976593017578,0.2993053436279297,0
0.6840894699096679,0.2993053436279297,0
0.6672946929931640,0.3054800033569336,0
0.6557201385498047,0.3054800033569336,0
0.6564422607421875,0.3035631179809570,0
0.6620361328125000,0.3035631179809570,0
0.6669685363769531,0.3049501419067382,0
0.6625637054443360,0.3049501419067382,0
0.6697168350219727,0.3052791595458984,0
0.6589651107788086,0.3052791595458984,0
0.6617403030395508,0.2993671417236328,0
0.6840923309326171,0.2993671417236328,0
0.6673067092895507,0.3055749893188476,0
0.6554094314575195,0.3055749893188476,0
0.6562156677246094,0.3035173416137695,0
0.6616567611694336,0.3035173416137695,0
0.6666807174682617,0.3047183990478515,0
0.6622026443481445,0.3047183990478515,0
0.6690336227416992,0.3048997879028320,0
0.6579128265380859,0.3048997879028320,0
0.6600751876831055,0.2981380462646484,0
0.6820484161376953,0.2981380462646484,0
0.6644868850708008,0.3033250808715820,0
0.6515453338623046,0.3033250808715820,0
0.6519367218017578,0.3001052856445313,0
0.6564886093139648,0.3001052856445313,0
0.6610490798950195,0.3000137329101563,0
0.6561761856079101,0.3000137329101563,0
0.6621116638183594,0.2992818832397461,0
0.6503849029541016,0.2992818832397461,0
0.6519916534423827,0.2915897369384766,0
0.6740318298339844,0.2915897369384766,0
0.6566202163696289,0.2969255447387695,0
0.6441204071044921,0.2969255447387695,0
0.6449037551879883,0.2947191238403320,0
0.6552715301513672,0.2950561523437500,0
0.6582075119018554,0.2867952346801758,0
0.6582075119018554,0.2960466384887695,0
0.6497034072875977,0.2896739959716797,0
0.6727935791015625,0.2896739959716797,0
0.6561161041259765,0.2965232849121094,0
0.6444213867187499,0.2965232849121094,0
0.6457609176635742,0.2950023651123047,0
0.6514160156250000,0.2950023651123047,0
0.6574224472045899,0.2965936660766602,0
0.6546094894409179,0.2965936660766602,0
0.6610811233520507,0.2983245849609375,0
0.6509456634521484,0.2983245849609375,0
0.6529792785644531,0.2919170379638672,0
0.6762228012084961,0.2919170379638672,0
0.6595624923706055,0.2989957809448242,0
0.6476337432861328,0.2989957809448242,0
0.6490402221679688,0.2974496841430664,0
0.6544561386108398,0.2974496841430664,0
0.6605449676513672,0.2987394332885742,0
0.6576410293579101,0.2987394332885742,0
0.6637979507446289,0.3002145767211914,0
0.6533300399780273,0.3002145767211914,0
0.6550666809082031,0.2932125091552734,0
0.6784755706787109,0.2932125091552734,0
0.6614456176757812,0.3003776550292969,0
0.6490167617797852,0.3003776550292969,0
0.6503986358642578,0.2986873626708984,0
0.6603183746337891,0.2875934600830078,0
0.6621940612792968,0.3000165939331055,0
0.6533632278442383,0.3000165939331055,0
0.6654968261718750,0.3015306472778320,0
0.6547616958618164,0.3015306472778320,0
0.6563707351684570,0.2941572189331055,0
0.6805458068847656,0.2941572189331055,0
0.6629808425903320,0.3018098831176758,0
0.6502189636230469,0.3018098831176758,0
0.6516454696655273,0.3001979827880859,0
0.6573926925659179,0.3001979827880859,0
0.6639163970947265,0.3011495590209961,0
0.6611051559448242,0.3011495590209961,0
0.6669891357421874,0.3025989532470703,0
0.6561870574951172,0.3025989532470703,0
0.6575895309448242,0.2948461532592773,0
0.6815986633300781,0.2948461532592773,0
0.6639032363891602,0.3025400161743164,0
0.6508878707885742,0.3025400161743164,0
0.6524745941162109,0.3010391235351562,0
0.6579265594482422,0.3010391235351562,0
0.6646934509277344,0.3014957427978516,0
0.6620635986328125,0.3014957427978516,0
0.6675161361694336,0.3030509948730469,0
0.6567129135131836,0.3030509948730469,0
0.6578161239624023,0.2948541641235352,0
0.6818447113037109,0.2948541641235352,0
0.6642414093017578,0.3027671813964843,0
0.6512403488159180,0.3027671813964843,0
0.6527275085449219,0.3016222000122070,0
0.6581239700317383,0.3016222000122070,0
0.6649703979492188,0.3014476776123047,0
0.6624956130981445,0.3014476776123047,0
0.6676826477050781,0.3031396865844727,0
0.6568965911865234,0.3031396865844727,0
0.6577857971191406,0.2947603225708008,0
0.6819980621337890,0.2947603225708008,0
0.6644760131835937,0.3030326843261719,0
0.6514125823974609,0.3030326843261719,0
0.6530239105224609,0.3023380279541015,0
0.6583654403686523,0.3023380279541015,0
0.6657829284667969,0.3017332077026367,0
0.6637355804443359,0.3017332077026367,0
0.6683681488037109,0.3035877227783203,0
0.6575866699218750,0.3035877227783203,0
0.6584117889404296,0.2950447082519531,0
0.6828317642211914,0.2950447082519531,0
0.6651128768920899,0.3034938812255859,0
0.6520820617675781,0.3034938812255859,0
0.6536911010742187,0.3031860351562500,0
0.6590091705322265,0.3031860351562500,0
0.6666137695312500,0.3021938323974609,0
0.6647958755493164,0.3021938323974609,0
0.6691120147705077,0.3040941238403320,0
0.6583734512329101,0.3040941238403320,0
0.6589496612548827,0.2953720092773438,0
0.6626174926757812,0.2953720092773438,0
0.6658069610595703,0.3040575027465820,0
0.6528711318969727,0.3040575027465820,0
0.6543748855590820,0.3041233062744140,0
0.6593879699707031,0.3041233062744140,0
0.6674606323242187,0.3025777816772461,0
0.6659345626831055,0.3025777816772461,0
0.6698364257812500,0.3046176910400391,0
0.6590789794921875,0.3046176910400391,0
0.6594005584716797,0.2956066131591797,0
0.6838274002075195,0.2956066131591797,0
0.6663127899169922,0.3045049667358398,0
0.6534805297851562,0.3045049667358398,0
0.6549030303955078,0.3049736022949219,0
0.6598857879638672,0.3049736022949219,0
0.6682159423828125,0.3028381347656250,0
0.6669198989868164,0.3028381347656250,0
0.6703777313232422,0.3050691604614258,0
0.6593416213989257,0.3050691604614258,0
0.6593942642211914,0.2957021713256836,0
0.6839590072631836,0.2957021713256836,0
0.6664667129516602,0.3048746109008789,0
0.6537574768066406,0.3048746109008789,0
0.6550884246826172,0.3056058883666992,0
0.6599658966064453,0.3056058883666992,0
0.6684814453125000,0.3030132293701172,0
0.6674966812133789,0.3030132293701172,0
0.6706449508666992,0.3053707122802734,0
0.6595029830932617,0.3053707122802734,0
0.6593942642211914,0.2958721160888672,0
0.6841444015502930,0.2958721160888672,0
0.6666847229003906,0.3052906036376953,0
0.6542610168457031,0.3052906036376953,0
0.6554878234863281,0.3063034057617187,0
0.6601375579833985,0.3063034057617187,0
0.6689987182617188,0.3031242370605469,0
0.6682828903198242,0.3031242370605469,0
0.6711153030395508,0.3056522369384765,0
0.6598823547363281,0.3056522369384765,0
0.6594686508178711,0.2959733963012695,0
0.6843000411987304,0.2959733963012695,0
0.6670125961303711,0.3055166244506836,0
0.6546781539916992,0.3055166244506836,0
0.6559232711791992,0.3068967819213867,0
0.6603584289550781,0.3068967819213867,0
0.6694890975952148,0.3032981872558594,0
0.6690507888793945,0.3032981872558594,0
0.6717281341552734,0.3059675216674805,0
0.6601661682128906,0.3059675216674805,0
0.6597667694091797,0.2960987091064453,0
0.6847314834594727,0.2960987091064453,0
0.6673027038574219,0.3057844161987305,0
0.6551519393920898,0.3057844161987305,0
0.6563158035278320,0.3074495315551758,0
0.6604082107543945,0.3074495315551758,0
0.6697362899780274,0.3033445358276367,0
0.6694890975952148,0.3033445358276367,0
0.6717401504516601,0.3060613632202148,0
0.6597278594970702,0.3060613632202148,0
0.6589782714843749,0.2957548141479492,0
0.6836952209472656,0.2957548141479492,0
0.6660982131958008,0.3051338195800781,0
0.6676454544067383,0.3051338195800781,0
0.6546100616455078,0.3063440322875977,0
0.6570796966552734,0.3063440322875977,0
0.6661508560180663,0.3001104354858398,0
0.6657222747802735,0.3001104354858398,0
0.6667551040649414,0.3019351959228516,0
0.6625041961669922,0.3019351959228516,0
0.6517026901245117,0.2902559280395507,0
0.6757558822631836,0.2902559280395507,0
0.6579380035400391,0.2983760833740234,0
0.6454433441162110,0.2983760833740234,0
0.6486459732055664,0.2994735717773437,0
0.6560834884643555,0.2994735717773437,0
0.6582870483398438,0.2935363769531250,0
0.6585840225219727,0.2935363769531250,0
0.6599052429199218,0.2964031219482422,0
0.6474254608154296,0.2964031219482422,0
0.6464841842651367,0.3041067123413086,0
0.6464841842651367,0.2861223220825195,0
