REDsignal,IRsignal,synced
0.7163331985473632,0.4805711746215820,0
0.7229398727416992,0.4805711746215820,0
0.7255554199218750,0.4683895111083984,0
0.7092693328857421,0.4683895111083984,0
0.7208776473999023,0.4804933547973633,0
0.7208776473999023,0.4804933547973633,0
0.7077953338623046,0.4886209487915039,0
0.7190563201904296,0.4886209487915039,0
0.7319686889648437,0.4754384994506836,0
0.7184949874877929,0.4754384994506836,0
0.7155675888061523,0.4813184738159180,0
0.7209863662719727,0.4813184738159180,0
0.7221364974975586,0.4692220687866211,0
0.7221364974975586,0.4692220687866211,0
0.7144981384277344,0.4814603805541992,0
0.7290121078491211,0.4814603805541992,0
0.6985673904418945,0.4897871017456055,0
0.6985673904418945,0.4897871017456055,0
0.7200571060180664,0.4767133712768554,0
0.7200571060180664,0.4767133712768554,0
0.7023513793945312,0.4829034805297852,0
0.7023513793945312,0.4829034805297852,0
0.7085517883300781,0.4708883285522460,0
0.6909055709838867,0.4708883285522460,0
0.7014667510986328,0.4831712722778320,0
0.7014667510986328,0.4831712722778320,0
0.6868955612182617,0.4913457870483398,0
0.6977005004882812,0.4913457870483398,0
0.7104148864746094,0.4782016754150391,0
0.7104148864746094,0.4782016754150391,0
0.6947587966918946,0.4843568801879883,0
0.7008567810058594,0.4843568801879883,0
0.7026992797851562,0.4721414566040039,0
0.6857517242431640,0.4721414566040039,0
0.6968725204467773,0.4841892242431640,0
0.7124971389770508,0.4841892242431640,0
0.6831865310668945,0.4923551559448242,0
0.6831865310668945,0.4923551559448242,0
0.7072099685668946,0.4792871475219727,0
0.7072099685668946,0.4792871475219727,0
0.6921758651733398,0.4852970123291016,0
0.6921758651733398,0.4852970123291016,0
0.7008041381835938,0.4730672836303711,0
0.7008041381835938,0.4730672836303711,0
0.6954523086547851,0.4850572586059570,0
0.6954523086547851,0.4850572586059570,0
0.6822601318359375,0.4932357788085937,0
0.6822601318359375,0.4932357788085937,0
0.7066732406616211,0.4801528930664062,0
0.7066732406616211,0.4801528930664062,0
0.6920059204101562,0.4862274169921875,0
0.6920059204101562,0.4862274169921875,0
0.7008825302124023,0.4738483428955078,0
0.7008825302124023,0.4738483428955078,0
0.6959243774414062,0.4859664916992187,0
0.6959243774414062,0.4859664916992187,0
0.6830749511718750,0.4941398620605468,0
0.6830749511718750,0.4941398620605468,0
0.7077953338623046,0.4808956146240234,0
0.7077953338623046,0.4808956146240234,0
0.6934307098388671,0.4869867324829101,0
0.6934307098388671,0.4869867324829101,0
0.7026517868041992,0.4746253967285156,0
0.7026517868041992,0.4746253967285156,0
0.6977560043334960,0.4867115020751953,0
0.6977560043334960,0.4867115020751953,0
0.6849420547485351,0.4948986053466797,0
0.6849420547485351,0.4948986053466797,0
0.7095960617065430,0.4816938400268554,0
0.7095960617065430,0.4816938400268554,0
0.6950500488281249,0.4877140045166015,0
0.6950500488281249,0.4877140045166015,0
0.7041240692138672,0.4754024505615234,0
0.7041240692138672,0.4754024505615234,0
0.6991928100585937,0.4873832702636718,0
0.6991928100585937,0.4873832702636718,0
0.6864303588867188,0.4955589294433593,0
0.6864303588867188,0.4955589294433593,0
0.7110197067260742,0.4823318481445312,0
0.7110197067260742,0.4823318481445312,0
0.6984197616577148,0.4844398498535156,0
0.7032560348510742,0.4986900329589843,0
0.7032560348510742,0.4986900329589843,0
0.6891689300537109,0.4878398895263671,0
0.7009666442871093,0.4883165359497070,0
0.7009666442871093,0.4883165359497070,0
0.6882820129394531,0.4959657669067383,0
0.6882820129394531,0.4959657669067383,0
0.7134481430053711,0.4825704574584961,0
0.7134481430053711,0.4825704574584961,0
0.6997472763061523,0.4882633209228515,0
0.6997472763061523,0.4882633209228515,0
0.7099439620971679,0.4752222061157226,0
0.7099439620971679,0.4752222061157226,0
0.7062761306762695,0.4863235473632812,0
0.7062761306762695,0.4863235473632812,0
0.6947902679443360,0.4932003021240234,0
0.6947902679443360,0.4932003021240234,0
0.7207574844360352,0.4784122467041015,0
0.7207574844360352,0.4784122467041015,0
0.7074199676513672,0.4832548141479492,0
0.7074199676513672,0.4832548141479492,0
0.7172012329101562,0.4699356079101562,0
0.7172012329101562,0.4699356079101562,0
0.7125434875488281,0.4815845489501953,0
0.7125434875488281,0.4815845489501953,0
0.6997718811035156,0.4895496368408203,0
0.6997718811035156,0.4895496368408203,0
0.7242462158203125,0.4764730453491210,0
0.7242462158203125,0.4764730453491210,0
0.7095033645629882,0.4827501296997070,0
0.7095033645629882,0.4827501296997070,0
0.7182209014892578,0.4707721710205078,0
0.7182209014892578,0.4707721710205078,0
0.7127277374267578,0.4833795547485351,0
0.7127277374267578,0.4833795547485351,0
0.6994371414184570,0.4918985366821289,0
0.6994371414184570,0.4918985366821289,0
0.7235252380371093,0.4789398193359375,0
0.7235252380371093,0.4789398193359375,0
0.7084562301635742,0.4853822708129882,0
0.7084562301635742,0.4853822708129882,0
0.7170942306518554,0.4732280731201172,0
0.7170942306518554,0.4732280731201172,0
0.7115707397460938,0.4856695175170898,0
0.7115707397460938,0.4856695175170898,0
0.6983751296997071,0.4941335678100586,0
0.6983751296997071,0.4941335678100586,0
0.7225805282592773,0.4811731338500976,0
0.7225805282592773,0.4811731338500976,0
0.7077461242675781,0.4876253128051757,0
0.7077461242675781,0.4876253128051757,0
0.7165449142456054,0.4754390716552734,0
0.7165449142456054,0.4754390716552734,0
0.7111427307128906,0.4879520416259766,0
0.7111427307128906,0.4879520416259766,0
0.6978561401367187,0.4964309692382812,0
0.6978561401367187,0.4964309692382812,0
0.7222492218017578,0.4832267761230469,0
0.7222492218017578,0.4832267761230469,0
0.7073793411254883,0.4894020080566406,0
0.7073793411254883,0.4894020080566406,0
0.7162576675415039,0.4770532608032226,0
0.7162576675415039,0.4770532608032226,0
0.7107994079589843,0.4892154693603515,0
0.7107994079589843,0.4892154693603515,0
0.6974761962890624,0.4973339080810547,0
0.6974761962890624,0.4973339080810547,0
0.7216403961181640,0.4838802337646484,0
0.7216403961181640,0.4838802337646484,0
0.7064872741699219,0.4899576187133789,0
0.7064872741699219,0.4899576187133789,0
0.7149496078491211,0.4774669647216797,0
0.7149496078491211,0.4774669647216797,0
0.7091634750366210,0.4895610809326172,0
0.7091634750366210,0.4895610809326172,0
0.6956531524658203,0.4978242874145508,0
0.6956531524658203,0.4978242874145508,0
0.7198482513427734,0.4844306945800781,0
0.7198482513427734,0.4844306945800781,0
0.7050630569458007,0.4905183792114258,0
0.7050630569458007,0.4905183792114258,0
0.7141307830810547,0.4781913757324219,0
0.7141307830810547,0.4781913757324219,0
0.7091560363769531,0.4904972076416015,0
0.7091560363769531,0.4904972076416015,0
0.6963815689086914,0.4985984802246093,0
0.6963815689086914,0.4985984802246093,0
0.7212301254272461,0.4851774215698242,0
0.7212301254272461,0.4851774215698242,0
0.7068082809448242,0.4913085937500000,0
0.7068082809448242,0.4913085937500000,0
0.7161849975585938,0.4786788940429687,0
0.7161849975585938,0.4786788940429687,0
0.7114465713500976,0.4910379409790039,0
0.7114465713500976,0.4910379409790039,0
0.6987001419067382,0.4991357803344726,0
0.6987001419067382,0.4991357803344726,0
0.7234571456909179,0.4857301712036133,0
0.7234571456909179,0.4857301712036133,0
0.7088373184204101,0.4917514801025391,0
0.7088373184204101,0.4917514801025391,0
0.7176647186279297,0.4791532516479492,0
0.7176647186279297,0.4791532516479492,0
0.7119569778442383,0.4914482116699219,0
0.7119569778442383,0.4914482116699219,0
0.6983327865600586,0.4997240066528320,0
0.6983327865600586,0.4997240066528320,0
0.7221399307250976,0.4863092422485351,0
0.7221399307250976,0.4863092422485351,0
0.7065759658813476,0.4923923492431641,0
0.7065759658813476,0.4923923492431641,0
0.7146320343017578,0.4798130035400390,0
0.7146320343017578,0.4798130035400390,0
0.7083166122436523,0.4921703338623047,0
0.7083166122436523,0.4921703338623047,0
0.6941642761230469,0.5003614425659180,0
0.6941642761230469,0.5003614425659180,0
0.7177379608154296,0.4869415283203125,0
0.7177379608154296,0.4869415283203125,0
0.7021883010864257,0.4931356430053710,0
0.7021883010864257,0.4931356430053710,0
0.7106346130371094,0.4805454254150390,0
0.7106346130371094,0.4805454254150390,0
0.7048192977905273,0.4927997589111328,0
0.7208318710327148,0.4927997589111328,0
0.6913558959960937,0.5011671066284179,0
0.6913558959960937,0.5011671066284179,0
0.7157066345214843,0.4877935409545898,0
0.7157066345214843,0.4877935409545898,0
0.7009323120117187,0.4939727783203125,0
0.7009323120117187,0.4939727783203125,0
0.7099136352539063,0.4813173294067383,0
0.7099136352539063,0.4813173294067383,0
0.7044387817382812,0.4935190200805664,0
0.7044387817382812,0.4935190200805664,0
0.6911430358886719,0.5017667770385742,0
0.6911430358886719,0.5017667770385742,0
0.7155344009399414,0.4884195327758789,0
0.7155344009399414,0.4884195327758789,0
0.7006141662597656,0.4945192337036133,0
0.7006141662597656,0.4945192337036133,0
0.7096023559570312,0.4820348739624023,0
0.7096023559570312,0.4820348739624023,0
0.7040714263916016,0.4942308425903320,0
0.7040714263916016,0.4942308425903320,0
0.6908872604370117,0.5024087905883788,0
0.6908872604370117,0.5024087905883788,0
0.7154010772705078,0.4889236450195312,0
0.7154010772705078,0.4889236450195312,0
0.7007303237915039,0.4949998855590820,0
0.7007303237915039,0.4949998855590820,0
0.7101522445678711,0.4821584701538086,0
0.7101522445678711,0.4821584701538086,0
0.7052455902099609,0.4941272735595703,0
0.7052455902099609,0.4941272735595703,0
0.6928739547729492,0.5017324447631836,0
0.7047019958496094,0.4956487655639648,0
0.7047019958496094,0.4956487655639648,0
0.7183788299560546,0.4887233734130859,0
0.7048730850219727,0.4781307220458984,0
0.7048730850219727,0.4920541763305664,0
0.7153736114501953,0.4777610778808594,0
0.7153736114501953,0.4777610778808594,0
0.7113578796386718,0.4881437301635742,0
0.7113578796386718,0.4881437301635742,0
0.6992815017700195,0.4949747085571289,0
0.6992815017700195,0.4949747085571289,0
0.7245037078857421,0.4803909301757812,0
0.7245037078857421,0.4803909301757812,0
0.7102649688720702,0.4857582092285156,0
0.7102649688720702,0.4857582092285156,0
0.7195209503173828,0.4728607177734375,0
0.7195209503173828,0.4728607177734375,0
0.7141141891479492,0.4851671218872070,0
0.7141141891479492,0.4851671218872070,0
0.7006553649902344,0.4937742233276367,0
0.7119043350219726,0.4883880615234375,0
0.7119209289550781,0.4833194732666015,0
0.7096035003662109,0.4747547149658203,0
0.7181138992309570,0.4985383987426757,0
0.7007652282714844,0.4878479003906250,0
0.7122013092041015,0.4881969451904297,0
0.6984111785888671,0.4968784332275391,0
0.7096218109130860,0.4849668502807617,0
0.7094535827636719,0.5132686614990234,0
0.7071126937866211,0.4903507232666016,0
0.7134658813476562,0.5011951446533203,0
0.6981227874755859,0.4905241012573242,0
0.7254192352294921,0.4852317810058593,0
0.7254192352294921,0.4839048385620117,0
0.7068454742431640,0.4941341400146484,0
0.7195947647094726,0.4866039276123046,0
0.7043901443481445,0.4931327819824218,0
0.7107645034790039,0.5038793563842773,0
0.6956119537353516,0.4930189132690430,0
0.7071893692016601,0.4867492675781250,0
0.6935583114624023,0.4860300064086914,0
0.7049394607543945,0.4960332870483398,0
0.7178609848022460,0.4883668899536133,0
0.7029361724853516,0.4814603805541992,0
0.7094598770141601,0.5087511062622070,0
0.7118150711059570,0.4819198608398437,0
0.7062469482421875,0.4942491531372070,0
0.7223573684692383,0.4869850158691406,0
0.7042980194091797,0.4901647567749023,0
0.7046510696411132,0.5180339813232422,0
0.7046510696411132,0.4910602569580078,0
0.7091823577880859,0.5056743621826172,0
0.7115890502929687,0.4824909210205078,0
0.7061828613281250,0.4947469711303711,0
0.7222984313964843,0.4873254776000976,0
0.7043071746826172,0.4905435562133789,0
0.7046104431152344,0.4894866943359375,0
0.7046104431152344,0.4914768218994141,0
0.7089523315429688,0.5061206817626953,0
0.7112606048583984,0.4829332351684570,0
0.7055883407592773,0.4951812744140625,0
0.7216781616210938,0.4879297256469726,0
0.7033710479736328,0.4976863861083984,0
0.7163812637329101,0.4976863861083984,0
0.7035392761230469,0.4921508789062500,0
0.7077100753784179,0.5067821502685547,0
0.7098884582519531,0.4836238861083984,0
0.7041475296020507,0.4959308624267578,0
0.7202167510986328,0.4896926879882812,0
0.7019256591796875,0.5041477203369140,0
0.7019256591796875,0.4983444213867188,0
0.7021745681762696,0.4928186416625976,0
0.6999944686889649,0.4837675094604492,0
0.7088287353515624,0.5111789703369141,0
0.7088287353515624,0.4844043731689453,0
0.7032463073730468,0.4966157913208007,0
0.7194145202636718,0.4903209686279297,0
0.7011829376220703,0.4925674438476562,0
0.7011829376220703,0.4990768432617188,0
0.7014238357543945,0.4934114456176757,0
0.6992340087890625,0.4974649429321289,0
0.7081283569335938,0.4849130630493164,0
0.6909553527832031,0.4849130630493164,0
0.7025985717773438,0.4971570968627930,0
0.7187187194824218,0.4898660659790039,0
0.7006891250610351,0.4997577667236328,0
0.7137531280517578,0.4997577667236328,0
0.6989124298095702,0.4940340042114257,0
0.6989124298095702,0.4981052398681640,0
0.7077993392944336,0.4854652404785156,0
0.6906120300292968,0.4911071777343750,0
0.7184160232543945,0.4914047241210937,0
0.7184160232543945,0.4904628753662109,0
0.7002096176147461,0.5001062393188477,0
0.7132455825805664,0.4822362899780273,0
0.6982452392578125,0.4855516433715820,0
0.6982452392578125,0.4986333847045898,0
0.7070663452148437,0.4860254287719726,0
0.6895683288574218,0.4917217254638672,0
0.7175794601440429,0.4920667648315429,0
0.7175794601440429,0.4910047531127930,0
0.6992986679077148,0.5007007598876952,0
0.7122653961181641,0.4827489852905273,0
0.6973846435546874,0.4861021041870117,0
0.6973846435546874,0.4992078781127929,0
0.7062526702880859,0.4866559982299805,0
0.6890974044799805,0.4986894607543945,0
0.7168670654296875,0.4925497055053711,0
0.7168670654296875,0.4915798187255859,0
0.6986360549926758,0.5012294769287109,0
0.7117235183715820,0.4933948516845703,0
0.6968187332153321,0.4865987777709961,0
0.6968187332153321,0.4997463226318359,0
0.7057834625244140,0.4870840072631836,0
0.6887998580932617,0.4990287780761719,0
0.7169231414794922,0.4918304443359375,0
0.7169231414794922,0.4918304443359375,0
0.6994028091430664,0.5011613845825195,0
0.7129222869873046,0.4931293487548828,0
0.6990137100219727,0.4985006332397461,0
0.7061862945556641,0.4985006332397461,0
0.6930507659912110,0.4848981857299804,0
0.6930507659912110,0.4961111068725585,0
0.7226434707641601,0.4872264862060547,0
0.6940801620483398,0.5079214096069335,0
0.7199541091918945,0.4756273269653320,0
0.7199541091918945,0.4864637374877929,0
0.7062675476074218,0.4912719726562500,0
0.7132947921752929,0.4824783325195312,0
0.6992574691772461,0.4826196670532226,0
0.6992574691772461,0.4893482208251953,0
0.7274534225463867,0.4818008422851562,0
0.6982114791870117,0.5043256759643554,0
0.7225782394409179,0.4737894058227539,0
0.7225782394409179,0.4839340209960937,0
0.7074285507202148,0.4907215118408203,0
0.7139122009277343,0.4834024429321289,0
0.6988443374633789,0.4847991943359375,0
0.6988443374633789,0.4910596847534179,0
0.7263347625732421,0.4845405578613281,0
0.6966796875000000,0.5003780364990235,0
0.7208438873291015,0.4871646881103515,0
0.7079332351684570,0.4871646881103515,0
0.7055763244628906,0.4938154220581055,0
0.7119970321655273,0.5045951843261719,0
0.6969285964965820,0.4876487731933594,0
0.6969285964965820,0.4938777923583984,0
0.7243371963500976,0.4873432159423828,0
0.6946397781372070,0.5029529571533203,0
0.7186054229736328,0.4899559020996094,0
0.7186054229736328,0.4899559020996094,0
0.7030815124511719,0.4965265274047851,0
0.7093488693237304,0.5073263168334960,0
0.6940767288208007,0.4966312408447265,0
0.7054916381835937,0.4966312408447265,0
0.6918542861938476,0.4899330139160156,0
0.6918542861938476,0.5054523468017578,0
0.7160459518432617,0.4920467376708984,0
0.7030780792236327,0.5213630676269531,0
0.7073444366455078,0.4984148025512695,0
0.7073444366455078,0.5090566635131836,0
0.6924453735351562,0.4980073928833008,0
0.7040954589843750,0.4915357589721679,0
0.6907773971557617,0.5134632110595703,0
0.6907773971557617,0.5065217971801758,0
0.7152809143066406,0.4929782867431640,0
0.7025024414062500,0.5220823287963867,0
0.7069770812988281,0.4912279129028320,0
0.7069770812988281,0.5096099853515624,0
0.6921684265136718,0.4985509872436523,0
0.7038780212402344,0.4919654846191406,0
0.6905113220214844,0.5138597488403320,0
0.7018999099731446,0.4945501327514648,0
0.7021854400634765,0.4955383300781250,0
0.7066532135009765,0.4917211532592773,0
0.6918914794921874,0.4926097869873047,0
0.6918914794921874,0.4990018844604492,0
0.7197011947631836,0.4919626235961914,0
0.7014919281005859,0.5016357421875000,0
0.7147109985351562,0.4835947036743164,0
0.7017957687377929,0.4960372924804687,0
0.7061462402343750,0.5106565475463867,0
0.7061462402343750,0.5106565475463867,0
0.6913496017456054,0.4995248794555664,0
0.6913496017456054,0.4995248794555664,0
0.7188915252685547,0.4925136566162109,0
0.7188915252685547,0.4925136566162109,0
0.7005077362060547,0.5022382736206055,0
0.7005077362060547,0.5022382736206055,0
0.7007469177246094,0.4966856002807617,0
0.7007469177246094,0.4966856002807617,0
0.7049863815307617,0.5112545013427734,0
0.7049863815307617,0.5112545013427734,0
0.6900775909423827,0.5002269744873047,0
0.6900775909423827,0.5002269744873047,0
0.7179365158081055,0.4930955886840820,0
0.7179365158081055,0.4930955886840820,0
0.6997209548950195,0.5028436660766601,0
0.6997209548950195,0.5028436660766601,0
0.6999727249145508,0.4972091674804687,0
0.6999727249145508,0.4972091674804687,0
0.7043094635009766,0.5118232727050781,0
0.7043094635009766,0.5118232727050781,0
0.6894727706909179,0.5006813049316406,0
0.6894727706909179,0.5006813049316406,0
0.7173471450805664,0.4935825347900391,0
0.7173471450805664,0.4935825347900391,0
0.6989112854003906,0.5033563613891602,0
0.6989112854003906,0.5033563613891602,0
0.6991785049438476,0.4979095458984375,0
0.6991785049438476,0.4979095458984375,0
0.7035409927368164,0.5123582839965820,0
0.7035409927368164,0.5123582839965820,0
0.6887283325195312,0.5012929916381835,0
0.6887283325195312,0.5012929916381835,0
0.7165912628173828,0.4942588806152344,0
0.7165912628173828,0.4942588806152344,0
0.6984357833862305,0.5039096832275390,0
0.6984357833862305,0.5039096832275390,0
0.6988351821899413,0.4983833312988281,0
0.6988351821899413,0.4983833312988281,0
0.7032148361206054,0.5128234863281250,0
0.7032148361206054,0.5128234863281250,0
0.6883970260620117,0.5018148422241211,0
0.6883970260620117,0.5018148422241211,0
0.7162336349487305,0.4949037551879882,0
0.7162336349487305,0.4949037551879882,0
0.6979099273681640,0.5044475555419922,0
0.6979099273681640,0.5044475555419922,0
0.6981760025024414,0.4988605499267578,0
0.6981760025024414,0.4988605499267578,0
0.7024761199951172,0.5134122848510742,0
0.7024761199951172,0.5134122848510742,0
0.6876028060913085,0.5022680282592773,0
0.6876028060913085,0.5022680282592773,0
0.7153455734252929,0.4952178955078125,0
0.7153455734252929,0.4952178955078125,0
0.6971048355102539,0.5049167633056640,0
0.6971048355102539,0.5049167633056640,0
0.6974830627441406,0.4993635177612304,0
0.6974830627441406,0.4993635177612304,0
0.7017883300781250,0.5138740539550781,0
0.7017883300781250,0.5138740539550781,0
0.6869070053100585,0.5027921676635742,0
0.6869070053100585,0.5027921676635742,0
0.7147842407226562,0.4956745147705078,0
0.7147842407226562,0.4956745147705078,0
0.7101511001586914,0.4869426727294922,0
0.6975454330444336,0.4973745346069336,0
0.7026918411254882,0.4947755813598633,0
0.7026918411254882,0.5135410308837890,0
0.6889125823974609,0.5018943786621094,0
0.6889125823974609,0.5018943786621094,0
0.7181596755981445,0.4937833786010742,0
0.7181596755981445,0.4937833786010742,0
0.7015462875366211,0.5020236968994141,0
0.7015462875366211,0.5020236968994141,0
0.7036657333374023,0.4945913314819336,0
0.7036657333374023,0.4945913314819336,0
0.7095600128173828,0.5074407577514648,0
0.7095600128173828,0.5074407577514648,0
0.6959352493286133,0.4951354980468750,0
0.6959352493286133,0.4951354980468750,0
0.7246158599853515,0.4872465133666992,0
0.7246158599853515,0.4872465133666992,0
0.7069221496582031,0.4964229583740234,0
0.7069221496582031,0.4964229583740234,0
0.7074291229248046,0.4908124923706054,0
0.7074291229248046,0.4908124923706054,0
0.7119100570678710,0.5054700851440429,0
0.7119100570678710,0.5054700851440429,0
0.6969366073608398,0.4948070526123047,0
0.6969366073608398,0.4948070526123047,0
0.7245105743408203,0.4884286880493164,0
0.7245105743408203,0.4884286880493164,0
0.7060031890869141,0.4986116409301757,0
0.7060031890869141,0.4986116409301757,0
0.7059963226318359,0.4934886932373047,0
0.7059963226318359,0.4934886932373047,0
0.7099943161010742,0.5083671569824219,0
0.7099943161010742,0.5083671569824219,0
0.6948560714721680,0.4977390289306640,0
0.6948560714721680,0.4977390289306640,0
0.7223699569702148,0.4910951614379883,0
0.7223699569702148,0.4910951614379883,0
0.7038728713989257,0.5011814117431640,0
0.7038728713989257,0.5011814117431640,0
0.7037418365478515,0.4959806442260742,0
0.7013391494750977,0.4959806442260742,0
0.7077581405639648,0.5108997344970703,0
0.7077581405639648,0.5108997344970703,0
0.6926055908203125,0.5001771926879882,0
0.7040616989135742,0.5001771926879882,0
0.7201532363891602,0.4935070037841797,0
0.7201532363891602,0.4935070037841797,0
0.7016235351562500,0.5035268783569335,0
0.7016235351562500,0.5035268783569335,0
0.7017814636230468,0.4981687545776367,0
0.7017814636230468,0.4981687545776367,0
0.7060689926147461,0.5126792907714843,0
0.7060689926147461,0.5126792907714843,0
0.6911533355712890,0.5017753601074219,0
0.6911533355712890,0.5017753601074219,0
0.7188898086547851,0.4947864532470703,0
0.7188898086547851,0.4947864532470703,0
0.7006925582885742,0.5043474197387695,0
0.7006925582885742,0.5043474197387695,0
0.7010095596313476,0.4988731384277343,0
0.7010095596313476,0.4988731384277343,0
0.7055225372314453,0.5133172988891601,0
0.7055225372314453,0.5133172988891601,0
0.6908512115478516,0.5021730422973633,0
0.6908512115478516,0.5021730422973633,0
0.7187810897827148,0.4952259063720703,0
0.7187810897827148,0.4952259063720703,0
0.7006713867187500,0.5047885894775390,0
0.7006713867187500,0.5047885894775390,0
0.7010690689086914,0.4991157531738281,0
0.7010690689086914,0.4991157531738281,0
0.7055219650268555,0.5134729385375977,0
0.7055219650268555,0.5134729385375977,0
0.6907299041748046,0.5025049209594726,0
0.6907299041748046,0.5025049209594726,0
0.7185052871704102,0.4954662322998047,0
0.7185052871704102,0.4954662322998047,0
0.7002719879150391,0.5050741195678711,0
0.7002719879150391,0.5050741195678711,0
0.7004865646362305,0.4995157241821289,0
0.7004865646362305,0.4995157241821289,0
0.7049051284790039,0.5140027999877930,0
0.7049051284790039,0.5140027999877930,0
0.6900552749633789,0.5030073165893555,0
0.6900552749633789,0.5030073165893555,0
0.7177934646606445,0.4959663391113281,0
0.7177934646606445,0.4959663391113281,0
0.6996511459350586,0.5056823730468750,0
0.6996511459350586,0.5056823730468750,0
0.6999326705932617,0.5000999450683593,0
0.6999326705932617,0.5000999450683593,0
0.7044239044189453,0.5145223617553710,0
0.7044239044189453,0.5145223617553710,0
0.6897331237792969,0.5035680770874024,0
0.6897331237792969,0.5035680770874024,0
0.7174907684326172,0.4965282440185547,0
0.7174907684326172,0.4965282440185547,0
0.6992557525634765,0.5061269760131836,0
0.6992557525634765,0.5061269760131836,0
0.6998188018798828,0.5005794525146484,0
0.6998188018798828,0.5005794525146484,0
0.7037870407104492,0.5148794174194335,0
0.7037870407104492,0.5148794174194335,0
0.6889938354492188,0.5039754867553711,0
0.6889938354492188,0.5039754867553711,0
0.7165838241577148,0.4970300674438476,0
0.7165838241577148,0.4970300674438476,0
0.6983636856079102,0.5065721511840821,0
0.6983636856079102,0.5065721511840821,0
0.6985256195068359,0.5010795593261719,0
0.6985256195068359,0.5010795593261719,0
0.7029109954833984,0.5153675079345703,0
0.7029109954833984,0.5153675079345703,0
0.6881875991821289,0.5043909072875976,0
0.6881875991821289,0.5043909072875976,0
0.7158857345581054,0.4974534988403320,0
0.7158857345581054,0.4974534988403320,0
0.6977794647216796,0.5070653915405273,0
0.6977794647216796,0.5070653915405273,0
0.6981840133666992,0.5014234542846679,0
0.6981840133666992,0.5014234542846679,0
0.7025087356567382,0.5158155441284179,0
0.7025087356567382,0.5158155441284179,0
0.6878242492675781,0.5047966003417969,0
0.6878242492675781,0.5047966003417969,0
0.7153902053833008,0.4979701995849609,0
0.7153902053833008,0.4979701995849609,0
0.6973131179809570,0.5074264526367187,0
0.6973131179809570,0.5074264526367187,0
0.6975614547729492,0.5019784927368164,0
0.6953939437866211,0.4928775787353515,0
0.7019519805908203,0.5162910461425781,0
0.7043231964111328,0.5162910461425781,0
0.6873338699340820,0.5053676605224610,0
0.6873338699340820,0.5053676605224610,0
0.7150182723999023,0.4985143661499023,0
0.6856870651245117,0.4985143661499023,0
0.6969503402709961,0.5080244064331054,0
0.6969503402709961,0.5080244064331054,0
0.6972873687744140,0.5024448394775390,0
0.6972873687744140,0.5024448394775390,0
0.7017431259155273,0.5167608261108398,0
0.7017431259155273,0.5167608261108398,0
0.6870803833007812,0.5058082580566406,0
0.6870803833007812,0.5058082580566406,0
0.7145748138427734,0.4989389419555664,0
0.7145748138427734,0.4989389419555664,0
0.6965309143066406,0.5084014892578125,0
0.6965309143066406,0.5084014892578125,0
0.6968421936035156,0.5029174804687500,0
0.6968421936035156,0.5029174804687500,0
0.7015148162841797,0.5169794082641601,0
0.7015148162841797,0.5169794082641601,0
0.6874242782592773,0.5057979583740234,0
0.6874242782592773,0.5057979583740234,0
0.7158279418945312,0.4984428405761718,0
0.7158279418945312,0.4984428405761718,0
0.6988431930541992,0.5072582244873046,0
0.6988431930541992,0.5072582244873046,0
0.7004533767700195,0.5005994796752929,0
0.7004533767700195,0.5005994796752929,0
0.7065055847167968,0.5133750915527343,0
0.7065055847167968,0.5133750915527343,0
0.6934404373168945,0.5008678436279297,0
0.6934404373168945,0.5008678436279297,0
0.7223281860351562,0.4926624298095703,0
0.7223281860351562,0.4926624298095703,0
0.7052736282348633,0.5011407852172851,0
0.7052736282348633,0.5011407852172851,0
0.7061725616455078,0.4949220657348632,0
0.7061725616455078,0.4949220657348632,0
0.7110265731811524,0.5088769912719726,0
0.7110265731811524,0.5088769912719726,0
0.6966716766357421,0.4981739044189453,0
0.6966716766357421,0.4981739044189453,0
0.7241506576538086,0.4916032791137695,0
0.7241506576538086,0.4916032791137695,0
0.7060890197753906,0.5014354705810546,0
0.7060890197753906,0.5014354705810546,0
0.7061908721923827,0.4964658737182617,0
0.7061908721923827,0.4964658737182617,0
0.7103816986083984,0.5111274719238281,0
0.7103816986083984,0.5111274719238281,0
0.6956863403320312,0.5006710052490234,0
0.6956863403320312,0.5006710052490234,0
0.7226795196533203,0.4942708969116211,0
0.7226795196533203,0.4942708969116211,0
0.7043415069580078,0.5039720535278320,0
0.7043415069580078,0.5039720535278320,0
0.7040903091430664,0.4988965988159180,0
0.7040903091430664,0.4988965988159180,0
0.7081214904785156,0.5133991241455078,0
0.7081214904785156,0.5133991241455078,0
0.6932413101196289,0.5030021667480469,0
0.6932413101196289,0.5030021667480469,0
0.7201435089111328,0.4965333938598633,0
0.7201435089111328,0.4965333938598633,0
0.7019542694091797,0.5061761856079101,0
0.7019542694091797,0.5061761856079101,0
0.7018798828125000,0.5012037277221679,0
0.7018798828125000,0.5012037277221679,0
0.7062028884887696,0.5151597976684570,0
0.7062028884887696,0.5151597976684570,0
0.6918731689453125,0.5046781539916992,0
0.6918731689453125,0.5046781539916992,0
0.7186208724975586,0.4979845046997070,0
0.7186208724975586,0.4979845046997070,0
0.7011222839355469,0.5072839736938476,0
0.7011222839355469,0.5072839736938476,0
0.7011154174804687,0.5020626068115234,0
0.7011154174804687,0.5020626068115234,0
0.7057399749755859,0.5158693313598632,0
0.7057399749755859,0.5158693313598632,0
0.6914920806884766,0.5051639556884765,0
0.6914920806884766,0.5051639556884765,0
0.7182163238525391,0.4984039306640625,0
0.7182163238525391,0.4984039306640625,0
0.7007926940917969,0.5076072692871093,0
0.7007926940917969,0.5076072692871093,0
0.7006708145141601,0.5023401260375976,0
0.7006708145141601,0.5023401260375976,0
0.7054321289062500,0.5160638809204101,0
0.7054321289062500,0.5160638809204101,0
0.6912586212158203,0.5053562164306641,0
0.6912586212158203,0.5053562164306641,0
0.7180143356323242,0.4987237930297851,0
0.7180143356323242,0.4987237930297851,0
0.7006004333496093,0.5078229904174805,0
0.7006004333496093,0.5078229904174805,0
0.7005638122558594,0.5026033401489257,0
0.7005638122558594,0.5026033401489257,0
0.7051746368408203,0.5162544250488281,0
0.7051746368408203,0.5162544250488281,0
0.6909942626953125,0.5056772232055664,0
0.6909942626953125,0.5056772232055664,0
0.7175485610961914,0.4991197586059570,0
0.7175485610961914,0.4991197586059570,0
0.7000173568725586,0.5082744598388672,0
0.7000173568725586,0.5082744598388672,0
0.6998920440673828,0.5030473709106446,0
0.6998920440673828,0.5030473709106446,0
0.7044382095336914,0.5167390823364257,0
0.7044382095336914,0.5167390823364257,0
0.6902217864990234,0.5061567306518554,0
0.6902217864990234,0.5061567306518554,0
0.7168487548828125,0.4995723724365234,0
0.7168487548828125,0.4995723724365234,0
0.6993627548217773,0.5086698532104492,0
0.6993627548217773,0.5086698532104492,0
0.6993083953857422,0.5035223007202149,0
0.6993083953857422,0.5035223007202149,0
0.7039375305175781,0.5172586441040039,0
0.7039375305175781,0.5172586441040039,0
0.6897726058959961,0.5067478179931640,0
0.6897726058959961,0.5067478179931640,0
0.7163040161132812,0.5001623153686523,0
0.7163040161132812,0.5001623153686523,0
0.6988431930541992,0.5091356277465821,0
0.6988431930541992,0.5091356277465821,0
0.6984907150268554,0.5038473129272460,0
0.6984907150268554,0.5038473129272460,0
0.7030689239501953,0.5175848007202148,0
0.7030689239501953,0.5175848007202148,0
0.6887660980224609,0.5070951461791992,0
0.6887660980224609,0.5070951461791992,0
0.7153358459472656,0.5004770278930664,0
0.7153358459472656,0.5004770278930664,0
0.6978515625000000,0.5096019744873047,0
0.6978515625000000,0.5096019744873047,0
0.6976793289184570,0.5043983459472656,0
0.6976793289184570,0.5043983459472656,0
0.7023199081420898,0.5181358337402343,0
0.7023199081420898,0.5181358337402343,0
0.6881446838378906,0.5075077056884766,0
0.6881446838378906,0.5075077056884766,0
0.7147373199462891,0.5008930206298828,0
0.7147373199462891,0.5008930206298828,0
0.6973857879638672,0.5099910736083985,0
0.6973857879638672,0.5099910736083985,0
0.6972696304321289,0.5047130584716797,0
0.6972696304321289,0.5047130584716797,0
0.7019874572753906,0.5183910369873047,0
0.7019874572753906,0.5183910369873047,0
0.6879003524780273,0.5077468872070312,0
0.6879003524780273,0.5077468872070312,0
0.7143939971923828,0.5012952804565429,0
0.7143939971923828,0.5012952804565429,0
0.6969898223876952,0.5103464126586914,0
0.6969898223876952,0.5103464126586914,0
0.6968759536743164,0.5051691055297851,0
0.6968759536743164,0.5051691055297851,0
0.7015537261962891,0.5187543869018555,0
0.7015537261962891,0.5187543869018555,0
0.6874746322631836,0.5082344055175781,0
0.6874746322631836,0.5082344055175781,0
0.7139997482299805,0.5016117095947266,0
0.7139997482299805,0.5016117095947266,0
0.7101299285888671,0.5029815673828125,0
0.6970298767089843,0.5308559417724609,0
0.6956880569458007,0.5087694168090821,0
0.6956880569458007,0.5087694168090821,0
0.7047094345092774,0.4963851928710937,0
0.7047094345092774,0.4963851928710937,0
0.7008035659790038,0.5075471878051757,0
0.7008035659790038,0.5075471878051757,0
0.6888462066650390,0.5145378112792969,0
0.6888462066650390,0.5145378112792969,0
0.7146669387817383,0.4998687744140625,0
0.7146669387817383,0.4998687744140625,0
0.7013008117675781,0.5043972015380859,0
0.7013008117675781,0.5043972015380859,0
0.7110923767089844,0.4910099029541015,0
0.7110923767089844,0.4910099029541015,0
0.7072666168212890,0.5016895294189453,0
0.7072666168212890,0.5016895294189453,0
0.6948835372924804,0.5091539382934570,0
0.6948835372924804,0.5091539382934570,0
0.7196943283081054,0.4955635070800781,0
0.7196943283081054,0.4955635070800781,0
0.7047563552856445,0.5016798019409180,0
0.7047563552856445,0.5016798019409180,0
0.7129852294921875,0.4899948120117187,0
0.7129852294921875,0.4899948120117187,0
0.7079103469848632,0.5020030975341797,0
0.7079103469848632,0.5020030975341797,0
0.6943559646606445,0.5103681564331054,0
0.6943559646606445,0.5103681564331054,0
0.7183948516845703,0.4974409103393554,0
0.7183948516845703,0.4974409103393554,0
0.7031581878662109,0.5039400100708008,0
0.7031581878662109,0.5039400100708008,0
0.7111095428466797,0.4923305511474609,0
0.7111095428466797,0.4923305511474609,0
0.7058658599853516,0.5045053482055664,0
0.7058658599853516,0.5045053482055664,0
0.7034025192260742,0.5073583602905273,0
0.7028474807739258,0.5024488449096679,0
0.7028474807739258,0.5024488449096679,0
0.7072271347045899,0.5165393829345702,0
0.7072271347045899,0.5165393829345702,0
0.6928064346313476,0.5062602996826172,0
0.6928064346313476,0.5062602996826172,0
0.7189550399780273,0.4999700546264648,0
0.7189550399780273,0.4999700546264648,0
0.7014392852783203,0.5091871261596680,0
0.7014392852783203,0.5091871261596680,0
0.7010541915893554,0.5042152404785156,0
0.7010541915893554,0.5042152404785156,0
0.7057382583618164,0.5178915023803711,0
0.7057382583618164,0.5178915023803711,0
0.6916849136352539,0.5072999954223633,0
0.6916849136352539,0.5072999954223633,0
0.7180932998657227,0.5007877349853516,0
0.7180932998657227,0.5007877349853516,0
0.7006656646728515,0.5098188400268554,0
0.7006656646728515,0.5098188400268554,0
0.7003755569458008,0.5046861648559570,0
0.6987585067749024,0.5081949234008789,0
0.7070320129394531,0.4961093902587890,0
0.6910554885864257,0.5011934280395508,0
0.7174976348876952,0.5078001022338867,0
0.6889829635620117,0.5158555984497070,0
0.7002777099609375,0.5100923538208008,0
0.7000476837158203,0.5048521041870117,0
0.7049629211425781,0.5007854461669922,0
0.7049629211425781,0.5184597015380860,0
0.6908849716186524,0.5078681945800781,0
0.7019193649291992,0.5012323379516601,0
0.6886373519897461,0.5225103378295898,0
0.7128810882568359,0.4931739807128906,0
0.7128810882568359,0.5026313781738281,0
0.6977943420410156,0.5086738586425781,0
0.7059299468994140,0.4965894699096680,0
0.6898338317871093,0.5082172393798828,0
0.7162136077880860,0.5016408920288086,0
0.6875993728637695,0.5229125976562500,0
0.6988054275512695,0.5107389450073242,0
0.6984987258911133,0.5055994033813477,0
0.6969022750854492,0.5091585159301758,0
0.7050985336303711,0.4970563888549804,0
0.6892078399658202,0.5020826339721679,0
0.7002571105957031,0.5089473724365234,0
0.6871358871459960,0.5168912887573242,0
0.6983608245849610,0.5112962722778320,0
0.6981216430664062,0.5316873550415039,0
0.7028623580932617,0.5019744873046875,0
0.7028623580932617,0.5196166992187500,0
0.6888456344604492,0.5091562271118164,0
0.6998125076293945,0.5093009948730468,0
0.6865659713745117,0.5237497329711914,0
0.7108331680297851,0.4944076538085938,0
0.7108331680297851,0.5038919448852539,0
0.7020183563232422,0.5099252700805664,0
0.7020183563232422,0.5199531555175781,0
0.6880302429199219,0.5094108581542969,0
0.6989959716796875,0.5096134185791016,0
0.6858100891113281,0.5240999221801758,0
0.7102209091186523,0.4949014663696289,0
0.7102209091186523,0.5044052124023437,0
0.6951135635375977,0.5103326797485351,0
0.7014181137084960,0.5204813003540039,0
0.6873247146606445,0.5098302841186523,0
0.6983619689941406,0.5036464691162109,0
0.6851062774658203,0.5247745513916016,0
0.6962945938110351,0.5124280929565429,0
0.7094661712646484,0.5046890258789062,0
0.6944572448730468,0.4980663299560547,0
0.6944572448730468,0.5107692718505860,0
0.7026185989379883,0.4986259460449218,0
0.6867914199829102,0.5102594375610351,0
0.7131694793701172,0.5037523269653320,0
0.6846742630004883,0.5037523269653320,0
0.6960685729980468,0.5126266479492188,0
0.7093900680541992,0.5049980163574218,0
0.6947536468505859,0.5109815597534180,0
0.7013483047485352,0.5029375076293945,0
0.6882350921630859,0.5031606674194335,0
0.6882350921630859,0.5100608825683594,0
0.7155738830566406,0.5030050277709961,0
0.6877452850341796,0.5231929779052734,0
0.7133331298828125,0.5029518127441406,0
0.7133331298828125,0.5029518127441406,0
0.6996316909790039,0.5078006744384765,0
0.7066858291625976,0.5170583724975586,0
0.6941127777099609,0.5050472259521485,0
0.7055643081665038,0.5050472259521485,0
0.7212907791137695,0.4974454879760742,0
0.6931989669799804,0.5117351531982421,0
0.7182140350341797,0.4976886749267578,0
0.7048313140869140,0.4976886749267578,0
0.7098701477050781,0.5036430358886719,0
0.7098701477050781,0.5137481689453125,0
0.6960102081298828,0.5032098770141601,0
0.7069707870483398,0.4971382141113281,0
0.6937568664550781,0.4971530914306641,0
0.6937568664550781,0.5119188308715820,0
0.7181488037109375,0.4990379333496093,0
0.7045537948608398,0.5275394439697265,0
0.7090896606445313,0.4981904983520508,0
0.7090896606445313,0.5157428741455078,0
0.6947776794433593,0.5056200027465820,0
0.7056198120117188,0.4997085571289062,0
0.6920104980468750,0.5209745407104492,0
0.6920104980468750,0.5144010543823242,0
0.7160865783691406,0.5013908386230469,0
0.7022701263427734,0.5300153732299805,0
0.7065902709960937,0.5005720138549804,0
0.7065902709960937,0.5179824829101562,0
0.6921627044677734,0.5078235626220703,0
0.7029848098754883,0.5082029342651367,0
0.6893840789794922,0.5164129257202148,0
0.7004568099975585,0.5164129257202148,0
0.7136867523193359,0.5032962799072266,0
0.6999853134155273,0.5058397293090821,0
0.7046882629394531,0.5195091247558593,0
0.7064117431640625,0.5195091247558593,0
0.7016550064086914,0.5090898513793946,0
0.7016550064086914,0.5092706680297852,0
0.6884628295898437,0.5173381805419922,0
0.6997512817382813,0.5054306030273438,0
0.6994268417358398,0.5321336746215820,0
0.6994268417358398,0.5064977645874024,0
0.7042556762695312,0.5200710296630859,0
0.7061073303222656,0.4978517532348632,0
0.7013448715209961,0.5032567977905273,0
0.7013448715209961,0.5096740722656250,0
0.6881538391113281,0.5175258636474609,0
0.6993330001831054,0.5118822097778321,0
0.6990154266357421,0.5323762893676758,0
0.6990154266357421,0.5066905975341797,0
0.7038454055786133,0.5202386856079101,0
0.7057422637939453,0.4980577468872070,0
0.7009225845336914,0.5098543167114258,0
0.7162731170654296,0.5098543167114258,0
0.6990079879760742,0.5177782058715820,0
0.6990079879760742,0.5120607376098633,0
0.6987504959106445,0.5070859909057617,0
0.6973485946655273,0.4978322982788086,0
0.7055025100708008,0.5246074676513671,0
0.7055025100708008,0.4983713150024414,0
0.7007869720458985,0.5101530075073242,0
0.7159669876098632,0.5035371780395508,0
0.6987682342529297,0.5063495635986328,0
0.6987682342529297,0.5125150680541992,0
0.6984231948852538,0.5073554992675781,0
0.6968547821044921,0.5108825683593750,0
0.7049772262573242,0.4987604141235351,0
0.6893114089965821,0.4987604141235351,0
0.7002393722534179,0.5104591369628906,0
0.7154909133911133,0.5039680480957031,0
0.6982446670532226,0.5128961563110351,0
0.7115478515625000,0.5128961563110351,0
0.6963174819946288,0.5078035354614258,0
0.6963174819946288,0.5113380432128906,0
0.7044731140136719,0.4991237640380859,0
0.6887351989746093,0.5041746139526367,0
0.7148082733154296,0.5055679321289063,0
0.7148082733154296,0.5043434143066406,0
0.6975065231323242,0.5132703781127930,0
0.7108818054199219,0.4960910797119140,0
0.6955953598022461,0.4989887237548828,0
0.6955953598022461,0.5116172790527344,0
0.7036605834960937,0.4994510650634765,0
0.6880662918090820,0.5111543655395507,0
0.7141662597656250,0.5057847976684570,0
0.7141662597656250,0.5045705795288086,0
0.6969343185424804,0.5135667800903320,0
0.7103067398071289,0.5058265686035156,0
0.6951501846313476,0.5120235443115234,0
0.7014627456665039,0.5219839096069335,0
0.6876491546630860,0.5114925384521484,0
0.6985445022583008,0.5052080154418945,0
0.7137657165527344,0.5049940109252929,0
0.6965658187866210,0.5139724731445312,0
0.7099359512329101,0.5061092376708984,0
0.6947038650512695,0.4996421813964844,0
0.6947038650512695,0.5223237991333007,0
0.7027456283569335,0.5265106201171875,0
0.6871845245361328,0.5117637634277343,0
0.6871845245361328,0.5117637634277343,0
0.7134275436401367,0.5052961349487305,0
0.6851091384887695,0.5052961349487305,0
0.6965623855590820,0.5139844894409179,0
0.6965623855590820,0.5139844894409179,0
0.6967855453491211,0.5085474014282226,0
0.6967855453491211,0.5085474014282226,0
0.7026271820068359,0.5215621948242187,0
0.7026271820068359,0.5215621948242187,0
0.6900381088256836,0.5102216720581054,0
0.6900381088256836,0.5102216720581054,0
0.7173997879028320,0.5026622772216797,0
0.7173997879028320,0.5026622772216797,0
0.7016578674316406,0.5099384307861328,0
0.7016578674316406,0.5099384307861328,0
0.7026437759399414,0.5034376144409179,0
0.7026437759399414,0.5034376144409179,0
0.7086393356323242,0.5156232833862304,0
0.7086393356323242,0.5156232833862304,0
0.6957109451293945,0.5043085098266601,0
0.6957109451293945,0.5043085098266601,0
0.7223213195800781,0.4974832534790039,0
0.7223213195800781,0.4974832534790039,0
0.7054790496826172,0.5063146591186524,0
0.7190860748291016,0.4984594345092773,0
0.7052261352539062,0.5049425125122070,0
0.7101848602294921,0.5049425125122070,0
0.7118762969970703,0.4930480957031250,0
0.7118762969970703,0.4930480957031250,0
0.7071104049682617,0.5053070068359374,0
0.7071104049682617,0.5053070068359374,0
0.6936344146728516,0.5138271331787109,0
0.6936344146728516,0.5138271331787109,0
0.7182083129882812,0.5007534027099609,0
0.7182083129882812,0.5007534027099609,0
0.7025848388671875,0.5073532104492188,0
0.7025848388671875,0.5073532104492188,0
0.7102935791015624,0.4956235885620117,0
0.7102935791015624,0.4956235885620117,0
0.7053108215332031,0.5079483032226563,0
0.7053108215332031,0.5079483032226563,0
0.6916007995605469,0.5163179397583008,0
0.6916007995605469,0.5163179397583008,0
0.7158016204833985,0.5031045913696289,0
0.7158016204833985,0.5031045913696289,0
0.7000585556030273,0.5097043991088867,0
0.7000585556030273,0.5097043991088867,0
0.7076665878295898,0.4978712081909180,0
0.7076665878295898,0.4978712081909180,0
0.7026317596435546,0.5100025177001953,0
0.7026317596435546,0.5100025177001953,0
0.6891231536865234,0.5180665969848632,0
0.6891231536865234,0.5180665969848632,0
0.7137411117553710,0.5047056198120117,0
0.7137411117553710,0.5047056198120117,0
0.6983711242675781,0.5109380722045899,0
0.6983711242675781,0.5109380722045899,0
0.7064741134643554,0.4988559722900390,0
0.7064741134643554,0.4988559722900390,0
0.7018735885620117,0.5106948852539063,0
0.7018735885620117,0.5106948852539063,0
0.6886293411254882,0.5185523986816406,0
0.6886293411254882,0.5185523986816406,0
0.7134916305541992,0.5050380706787109,0
0.7134916305541992,0.5050380706787109,0
0.6981908798217773,0.5111846923828125,0
0.6981908798217773,0.5111846923828125,0
0.7063579559326172,0.4989990234375000,0
0.7063579559326172,0.4989990234375000,0
0.7018518447875977,0.5108922958374024,0
0.7018518447875977,0.5108922958374024,0
0.6886333465576172,0.5187417984008789,0
0.6886333465576172,0.5187417984008789,0
0.7136157989501953,0.5052663803100585,0
0.7136157989501953,0.5052663803100585,0
0.6982292175292969,0.5114290237426757,0
0.6982292175292969,0.5114290237426757,0
0.7063356399536133,0.4993377685546875,0
0.7063356399536133,0.4993377685546875,0
0.7017328262329101,0.5109695434570313,0
0.7017328262329101,0.5109695434570313,0
0.6884565353393555,0.5189706802368164,0
0.6884565353393555,0.5189706802368164,0
0.7131763458251953,0.5056102752685546,0
0.7131763458251953,0.5056102752685546,0
0.6977903366088867,0.5117540359497070,0
0.6977903366088867,0.5117540359497070,0
0.7058115005493164,0.4996730804443359,0
0.7058115005493164,0.4996730804443359,0
0.7011457443237304,0.5115062713623046,0
0.7011457443237304,0.5115062713623046,0
0.6877813339233398,0.5194175720214843,0
0.6877813339233398,0.5194175720214843,0
0.7126836776733398,0.5060319900512695,0
0.7126836776733398,0.5060319900512695,0
0.6972805023193359,0.5121225357055664,0
0.6972805023193359,0.5121225357055664,0
0.7053714752197265,0.5000850677490234,0
0.7053714752197265,0.5000850677490234,0
0.7007011413574219,0.5118135452270508,0
0.7007011413574219,0.5118135452270508,0
0.6874174118041992,0.5198701858520508,0
0.6874174118041992,0.5198701858520508,0
0.7122327804565429,0.5063913345336913,0
0.7122327804565429,0.5063913345336913,0
0.6968278884887695,0.5126266479492188,0
0.6968278884887695,0.5126266479492188,0
0.7048559188842773,0.5004741668701171,0
0.7048559188842773,0.5004741668701171,0
0.7002290725708008,0.5122650146484374,0
0.7002290725708008,0.5122650146484374,0
0.6868818283081054,0.5202249526977539,0
0.6868818283081054,0.5202249526977539,0
0.7118642807006835,0.5066024780273437,0
0.7118642807006835,0.5066024780273437,0
0.6964027404785156,0.5130294799804688,0
0.6964027404785156,0.5130294799804688,0
0.7044273376464844,0.5009313583374023,0
0.7044273376464844,0.5009313583374023,0
0.6997941970825196,0.5127393722534179,0
0.6997941970825196,0.5127393722534179,0
0.6864131927490235,0.5205894470214844,0
0.6864131927490235,0.5205894470214844,0
0.7112554550170899,0.5070991516113281,0
0.7112554550170899,0.5070991516113281,0
0.6957904815673828,0.5133945465087890,0
0.6957904815673828,0.5133945465087890,0
0.7038562774658202,0.5012426376342773,0
0.7038562774658202,0.5012426376342773,0
0.6994222640991211,0.5130163192749023,0
0.6994222640991211,0.5130163192749023,0
0.6863542556762695,0.5207868576049804,0
0.6863542556762695,0.5207868576049804,0
0.7118568420410156,0.5069549560546874,0
0.7118568420410156,0.5069549560546874,0
0.6972255706787109,0.5127748489379883,0
0.6972255706787109,0.5127748489379883,0
0.7064048767089843,0.4997829437255859,0
0.7064048767089843,0.4997829437255859,0
0.7033613204956054,0.5103567123413085,0
0.7033613204956054,0.5103567123413085,0
0.6916706085205078,0.5164712905883789,0
0.6916706085205078,0.5164712905883789,0
0.7185064315795898,0.5010160446166992,0
0.7185064315795898,0.5010160446166992,0
0.7043031692504883,0.5055255889892578,0
0.7043031692504883,0.5055255889892578,0
0.7139150619506835,0.4915826797485351,0
0.7139150619506835,0.4915826797485351,0
0.7100601196289062,0.5021850585937500,0
0.7100601196289062,0.5021850585937500,0
0.6974161148071288,0.5089376449584960,0
0.6974161148071288,0.5089376449584960,0
0.7232711791992187,0.4945507049560547,0
0.7232711791992187,0.4945507049560547,0
0.7078067779541015,0.5007934570312500,0
0.7078067779541015,0.5007934570312500,0
0.7162782669067382,0.4887474060058594,0
0.7162782669067382,0.4887474060058594,0
0.7112703323364258,0.5015121459960937,0
0.7112703323364258,0.5015121459960937,0
0.6974464416503906,0.5103000640869141,0
0.6974464416503906,0.5103000640869141,0
0.7224872589111327,0.4972349166870117,0
0.7224872589111327,0.4972349166870117,0
0.7064506530761718,0.5040985107421875,0
0.7064506530761718,0.5040985107421875,0
0.7145359039306640,0.4922636032104492,0
0.7145359039306640,0.4922636032104492,0
0.7093517303466796,0.5048274993896484,0
0.7093517303466796,0.5048274993896484,0
0.6954792022705077,0.5133150100708007,0
0.6954792022705077,0.5133150100708007,0
0.7205211639404296,0.5002058029174804,0
0.7205211639404296,0.5002058029174804,0
0.7044822692871093,0.5070642471313477,0
0.7044822692871093,0.5070642471313477,0
0.7127054214477538,0.4951292037963867,0
0.7127054214477538,0.4951292037963867,0
0.7076471328735351,0.5077302932739257,0
0.7076471328735351,0.5077302932739257,0
0.6942077636718750,0.5162618637084960,0
0.6942077636718750,0.5162618637084960,0
0.7206298828125000,0.5028144836425781,0
0.7206298828125000,0.5028144836425781,0
0.7069089889526367,0.5095590591430664,0
0.7069089889526367,0.5095590591430664,0
0.7183776855468750,0.4973699569702148,0
0.7183776855468750,0.4973699569702148,0
0.7165861129760742,0.5095962524414063,0
0.7165861129760742,0.5095962524414063,0
0.7059911727905274,0.5176626205444336,0
0.7059911727905274,0.5176626205444336,0
0.7343261718749999,0.5038204193115234,0
0.7343261718749999,0.5038204193115234,0
0.7216947555541992,0.5102949142456055,0
0.7297954559326172,0.5102949142456055,0
0.7332790374755859,0.4978328704833984,0
0.7332790374755859,0.4978328704833984,0
0.7312717437744141,0.5100803375244141,0
0.7312717437744141,0.5100803375244141,0
0.7208370208740235,0.5180940628051758,0
0.7341259002685546,0.5180940628051758,0
0.7495084762573242,0.5041511535644531,0
0.7495084762573242,0.5041511535644531,0
0.7365852355957031,0.5106348037719727,0
0.7365852355957031,0.5106348037719727,0
0.7478931427001952,0.4982574462890625,0
0.7478931427001952,0.4982574462890625,0
0.7452438354492187,0.5104391098022460,0
0.7452438354492187,0.5104391098022460,0
0.7334856033325196,0.5184448242187499,0
0.7334856033325196,0.5184448242187499,0
0.7610252380371093,0.5045871734619141,0
0.7610252380371093,0.5045871734619141,0
0.7472391128540039,0.5110616683959961,0
0.7472391128540039,0.5110616683959961,0
0.7579914093017578,0.4985836029052734,0
0.7579914093017578,0.4985836029052734,0
0.7549913406372070,0.5108116149902343,0
0.7549913406372070,0.5108116149902343,0
0.7425790786743164,0.5187704086303710,0
0.7425790786743164,0.5187704086303710,0
0.7685445785522461,0.5047519683837890,0
0.7685445785522461,0.5047519683837890,0
0.7525142669677735,0.5113174438476562,0
0.7591312408447265,0.5113174438476562,0
0.7611064910888672,0.4988931655883789,0
0.7611064910888672,0.4988931655883789,0
0.7562067031860351,0.5109409332275391,0
0.7562067031860351,0.5109409332275391,0
0.7414838790893554,0.5191354751586914,0
0.7414838790893554,0.5191354751586914,0
0.7659387588500977,0.5051897048950195,0
0.7659387588500977,0.5051897048950195,0
0.7496297836303710,0.5117918014526367,0
0.7496297836303710,0.5117918014526367,0
0.7585813522338867,0.4994218826293945,0
0.7585813522338867,0.4994218826293945,0
0.7547367095947265,0.5117900848388671,0
0.7547367095947265,0.5117900848388671,0
0.7427284240722656,0.5200521469116210,0
0.7427284240722656,0.5200521469116210,0
0.7700529098510742,0.5058889389038086,0
0.7700529098510742,0.5058889389038086,0
0.7549032211303711,0.5124418258666992,0
0.7549032211303711,0.5124418258666992,0
0.7643926620483398,0.5000209808349609,0
0.7643926620483398,0.5000209808349609,0
0.7607236862182617,0.5121889114379883,0
0.7607236862182617,0.5121889114379883,0
0.7484973907470703,0.5205276489257812,0
0.7484973907470703,0.5205276489257812,0
0.7759786605834961,0.5064622879028320,0
0.7759786605834961,0.5064622879028320,0
0.7622623443603516,0.5131216049194336,0
0.7622623443603516,0.5131216049194336,0
0.7734821319580077,0.5005050659179687,0
0.7734821319580077,0.5005050659179687,0
0.7714365005493163,0.5125894546508789,0
0.7714365005493163,0.5125894546508789,0
0.7607036590576172,0.5203834533691406,0
0.7607036590576172,0.5203834533691406,0
0.7896331787109375,0.5056171417236328,0
0.7896331787109375,0.5056171417236328,0
0.7769416809082031,0.5107383728027344,0
0.7769416809082031,0.5107383728027344,0
0.7889287948608398,0.4963365554809570,0
0.7889287948608398,0.4963365554809570,0
0.7875417709350586,0.5061401367187500,0
0.7875417709350586,0.5061401367187500,0
0.7771705627441406,0.5118261337280273,0
0.7771705627441406,0.5118261337280273,0
0.8061595916748047,0.4947189331054687,0
0.8061595916748047,0.4947189331054687,0
0.7931751251220703,0.4977350234985352,0
0.7931751251220703,0.4977350234985352,0
0.8043977737426757,0.4819908142089844,0
0.8043977737426757,0.4819908142089844,0
0.8018583297729492,0.4913486480712890,0
0.8018583297729492,0.4913486480712890,0
0.7898838043212890,0.4977499008178711,0
0.7898838043212890,0.4977499008178711,0
0.8170503616333008,0.4825075149536133,0
0.8170503616333008,0.4825075149536133,0
0.8020866394042968,0.4886569976806641,0
0.8020866394042968,0.4886569976806641,0
0.8113637924194336,0.4763540267944336,0
0.8113637924194336,0.4763540267944336,0
0.8071037292480469,0.4890369415283203,0
0.8071037292480469,0.4890369415283203,0
0.7937833786010742,0.4981018066406250,0
0.7937833786010742,0.4981018066406250,0
0.8197196960449219,0.4848855972290039,0
0.8197196960449219,0.4848855972290039,0
0.8037237167358399,0.4922698974609375,0
0.8037237167358399,0.4922698974609375,0
0.8121093750000000,0.4807382583618164,0
0.8121093750000000,0.4807382583618164,0
0.8069234848022461,0.4938142776489258,0
0.8069234848022461,0.4938142776489258,0
0.7928066253662109,0.5028259277343750,0
0.7928066253662109,0.5028259277343750,0
0.8181919097900391,0.4894763946533203,0
0.8181919097900391,0.4894763946533203,0
0.8017702102661133,0.4966484069824219,0
0.8017702102661133,0.4966484069824219,0
0.8099321365356446,0.4847997665405273,0
0.8099321365356446,0.4847997665405273,0
0.8046546936035156,0.4975067138671875,0
0.8046546936035156,0.4975067138671875,0
0.7903953552246094,0.5060943603515625,0
0.7903953552246094,0.5060943603515625,0
0.8155763626098632,0.4922893524169922,0
0.8155763626098632,0.4922893524169922,0
0.7986740112304688,0.4989927291870117,0
0.7986740112304688,0.4989927291870117,0
0.8064537048339844,0.4866680145263672,0
0.8064537048339844,0.4866680145263672,0
0.8011871337890625,0.4989332199096679,0
0.8011871337890625,0.4989332199096679,0
0.7872877120971680,0.5071609497070312,0
0.7989206314086914,0.5014114379882812,0
0.7986402511596680,0.4962553024291992,0
0.7974403381347656,0.4962553024291992,0
0.8042221069335938,0.5098623275756836,0
0.8042221069335938,0.5098623275756836,0
0.7907690048217774,0.4992485046386719,0
0.7907690048217774,0.4992485046386719,0
0.8177999496459961,0.4927946090698242,0
0.8177999496459961,0.4927946090698242,0
0.8003351211547851,0.5018497467041015,0
0.8003351211547851,0.5018497467041015,0
0.7999420166015625,0.4967645645141601,0
0.7999420166015625,0.4967645645141601,0
0.8052165985107421,0.5104001998901367,0
0.8052165985107421,0.5104001998901367,0
0.7913509368896484,0.4997171401977539,0
0.7913509368896484,0.4997171401977539,0
0.8179092407226562,0.4934194564819336,0
0.8179092407226562,0.4934194564819336,0
0.8000879287719727,0.5027538299560547,0
0.8000879287719727,0.5027538299560547,0
0.7994562149047851,0.4976394653320312,0
0.7994562149047851,0.4976394653320312,0
0.8047290802001953,0.5112579345703124,0
0.8047290802001953,0.5112579345703124,0
0.7907976150512696,0.5008827209472656,0
0.7907976150512696,0.5008827209472656,0
0.8172986984252929,0.4945003509521484,0
0.8172986984252929,0.4945003509521484,0
0.7994327545166016,0.5035875320434570,0
0.7994327545166016,0.5035875320434570,0
0.7985876083374023,0.4986557006835937,0
0.7985876083374023,0.4986557006835937,0
0.8036092758178711,0.5122632980346680,0
0.8036092758178711,0.5122632980346680,0
0.7894826889038086,0.5017679214477538,0
0.7894826889038086,0.5017679214477538,0
0.8156347274780273,0.4953357696533203,0
0.8156347274780273,0.4953357696533203,0
0.7974311828613281,0.5044956207275391,0
0.7974311828613281,0.5044956207275391,0
0.7964241027832031,0.4994871139526367,0
0.7964241027832031,0.4994871139526367,0
0.8012638092041016,0.5130849838256836,0
0.8012638092041016,0.5130849838256836,0
0.7869804382324218,0.5026645660400391,0
0.7869804382324218,0.5026645660400391,0
0.8129917144775390,0.4961660385131836,0
0.8129917144775390,0.4961660385131836,0
0.7946908950805663,0.5052886962890625,0
0.7946908950805663,0.5052886962890625,0
0.7933610916137696,0.5001600265502929,0
0.7933610916137696,0.5001600265502929,0
0.7979284286499023,0.5136812210083007,0
0.7979284286499023,0.5136812210083007,0
0.7833721160888671,0.5032287597656250,0
0.7833721160888671,0.5032287597656250,0
0.8090663909912109,0.4967187881469726,0
0.8090663909912109,0.4967187881469726,0
0.7902797698974610,0.5057435989379883,0
0.7902797698974610,0.5057435989379883,0
0.7885562896728515,0.5006629943847656,0
0.7885562896728515,0.5006629943847656,0
0.7929708480834960,0.5138414382934570,0
0.7929708480834960,0.5138414382934570,0
0.7787693023681640,0.5029403686523437,0
0.7787693023681640,0.5029403686523437,0
0.8051530838012695,0.4956550598144531,0
0.8051530838012695,0.4956550598144531,0
0.7881752014160156,0.5028476715087891,0
0.7881752014160156,0.5028476715087891,0
0.7886764526367187,0.4954851150512695,0
0.7886764526367187,0.4954851150512695,0
0.7953849792480469,0.5060606002807617,0
0.7953849792480469,0.5060606002807617,0
0.7834659576416015,0.4915884017944336,0
0.7834659576416015,0.4915884017944336,0
0.8118661880493164,0.4798004150390625,0
0.8118661880493164,0.4798004150390625,0
0.7962701797485351,0.4832685470581055,0
0.7962701797485351,0.4832685470581055,0
0.7973562240600586,0.4734666824340820,0
0.7973562240600586,0.4734666824340820,0
0.8039113998413085,0.4836227416992187,0
0.8039113998413085,0.4836227416992187,0
0.7908685684204101,0.4714050292968750,0
0.7908685684204101,0.4714050292968750,0
0.8172729492187499,0.4642124176025391,0
0.8172729492187499,0.4642124176025391,0
0.7992622375488281,0.4730552673339843,0
0.7992622375488281,0.4730552673339843,0
0.7978231430053710,0.4685016632080078,0
0.7978231430053710,0.4685016632080078,0
0.8022903442382813,0.4828313827514648,0
0.8022903442382813,0.4828313827514648,0
0.7873981475830077,0.4735342025756836,0
0.7873981475830077,0.4735342025756836,0
0.8124080657958984,0.4684959411621094,0
0.8124080657958984,0.4684959411621094,0
0.7934183120727539,0.4789644241333008,0
0.7934183120727539,0.4789644241333008,0
0.7913280487060547,0.4758390426635742,0
0.7913280487060547,0.4758390426635742,0
0.7952630996704101,0.4911506652832031,0
0.7963994979858399,0.4701656341552734,0
0.7903490066528320,0.4779928207397461,0
0.7754316329956055,0.5008186340332031,0
0.7754316329956055,0.4937055587768555,0
0.8002681732177734,0.4807090759277344,0
0.7894306182861328,0.4808040618896484,0
0.7894306182861328,0.4986694335937500,0
0.7753177642822265,0.4888240814208984,0
0.8012763977050781,0.4829212188720703,0
0.7718994140625000,0.4977933883666992,0
0.7976308822631836,0.4840192794799805,0
0.7824857711791992,0.5133310317993164,0
0.7876207351684570,0.4909732818603516,0
0.7893768310546875,0.4790468215942383,0
0.7738998413085937,0.4907695770263671,0
0.7999099731445313,0.4859361648559570,0
0.7820291519165039,0.4992605209350586,0
0.7820291519165039,0.4934658050537109,0
0.7809179306030273,0.4886621475219726,0
0.7795457839965820,0.4920164108276367,0
0.7874061584472656,0.5073394775390625,0
0.7822059631347656,0.4917549133300781,0
0.7822059631347656,0.4921119689941406,0
0.7680604934692382,0.5002773284912109,0
0.7934875488281250,0.4772529602050781,0
0.7934875488281250,0.4863750457763671,0
0.7768249511718750,0.4930784225463867,0
0.7848054885864257,0.4812023162841796,0
0.7693559646606445,0.4929491043090820,0
0.7953758239746094,0.4868871688842773,0
0.7660863876342773,0.5082286834716797,0
0.7775968551635742,0.4958055496215820,0
0.7767150878906249,0.4911535263061523,0
0.7755311965942383,0.4945592880249023,0
0.7837251663208008,0.4825693130493164,0
0.7682281494140625,0.4874645233154297,0
0.7942039489746093,0.4947406768798828,0
0.7763603210449218,0.5030227661132812,0
0.7763603210449218,0.4971754074096679,0
0.7752096176147460,0.4924129486083984,0
0.7738672256469726,0.4958381652832031,0
0.7816646575927734,0.4840038299560547,0
0.7660034179687499,0.4890077590942383,0
0.7914848327636719,0.4911741256713867,0
0.7619144439697265,0.5042850494384765,0
0.7732481002807617,0.4984102249145508,0
0.7717397689819335,0.5198055267333984,0
0.7717397689819335,0.4969968795776367,0
0.7764965057373047,0.5069583892822266,0
0.7620912551879883,0.4967502593994140,0
0.7723857879638671,0.4967502593994140,0
0.7874679565429688,0.4906208038330078,0
0.7575788497924805,0.5053201675415039,0
0.7827192306518554,0.4911174774169922,0
0.7667793273925781,0.4911174774169922,0
0.7649837493896484,0.4979158401489258,0
0.7708734512329102,0.5078670501708984,0
0.7558307647705078,0.4976411819458008,0
0.7656904220581054,0.4976411819458008,0
0.7499576568603515,0.4913915634155273,0
0.7499576568603515,0.5060039520263672,0
0.7743976593017577,0.4917097091674805,0
0.7580062866210937,0.5217962265014648,0
0.7619625091552734,0.4902271270751953,0
0.7619625091552734,0.5077526092529296,0
0.7473215103149414,0.4967039108276367,0
0.7576801300048828,0.4961769104003906,0
0.7434019088745117,0.5021730422973633,0
0.7549364089965820,0.5021730422973633,0
0.7694177627563477,0.4852672576904297,0
0.7538669586181640,0.4869529724121093,0
0.7597160339355469,0.4949409484863281,0
0.7617067337036133,0.4949409484863281,0
0.7466268539428711,0.4780849456787109,0
0.7575794219970703,0.4749183654785156,0
0.7440147399902344,0.4771345138549805,0
0.7557626724243164,0.4627000808715820,0
0.7542240142822265,0.4589326858520508,0
0.7542240142822265,0.4612535476684570,0
0.7586545944213867,0.4729190826416015,0
0.7596502304077148,0.4786891937255859,0
0.7533153533935547,0.4565288543701171,0
0.7533153533935547,0.4624465942382812,0
0.7374830245971680,0.4710542678833007,0
0.7482971191406250,0.4653734207153320,0
0.7454074859619141,0.4883588790893554,0
0.7454074859619141,0.4614830017089844,0
0.7490301132202148,0.4755535125732422,0
0.7497493743896484,0.4542640686035156,0
0.7430671691894531,0.4678138732910156,0
0.7575931549072266,0.4678138732910156,0
0.7375167846679688,0.4774829864501953,0
0.7375167846679688,0.4724824905395508,0
0.7340847015380859,0.4697565078735351,0
0.7318405151367188,0.4697565078735351,0
0.7374841690063476,0.4852157592773437,0
0.7374841690063476,0.4646415710449219,0
0.7301605224609374,0.4791166305541992,0
0.7443683624267577,0.4764690399169922,0
0.7238931655883789,0.4790021896362304,0
0.7238931655883789,0.4841217041015625,0
0.7204593658447266,0.4806650161743164,0
0.7183330535888671,0.4843568801879883,0
0.7245718002319336,0.5015287399291992,0
0.7245718002319336,0.4730695724487304,0
0.7180715560913086,0.4857364654541015,0
0.7327394485473633,0.4794754028320312,0
0.7133422851562500,0.4886169433593750,0
0.7133422851562500,0.4886169433593750,0
0.7109275817871094,0.4841371536254883,0
0.7092704772949219,0.4874124526977539,0
0.7163354873657226,0.4756359100341797,0
0.7005054473876953,0.4807342529296875,0
0.7255325317382812,0.4877426147460937,0
0.7255325317382812,0.4813138961791992,0
0.7066108703613281,0.4901144027709960,0
0.7208421707153320,0.4729894638061523,0
0.7029481887817383,0.4762773513793945,0
0.7029481887817383,0.4886644363403320,0
0.7102352142333984,0.4767036437988281,0
0.6945837020874023,0.4883497238159180,0
0.7195987701416016,0.4844547271728515,0
0.7195987701416016,0.4824777603149414,0
0.7006971359252929,0.4912811279296875,0
0.7150194168090820,0.4829990386962890,0
0.6970722198486328,0.4899587631225586,0
0.7031661987304687,0.4899587631225586,0
0.7042951583862305,0.4781398773193359,0
0.6886636734008789,0.4898935317993164,0
0.7138315200805664,0.4840227127075195,0
0.6838251113891601,0.4840227127075195,0
0.7097127914428710,0.4928506851196289,0
0.7097127914428710,0.4844879150390625,0
0.6920963287353515,0.4915414810180664,0
0.6983453750610351,0.4835140228271484,0
0.6842348098754882,0.4846286773681641,0
0.6842348098754882,0.4915866851806641,0
0.7096166610717773,0.4856655120849609,0
0.6797424316406250,0.5070287704467773,0
0.7057176589965820,0.4772077560424804,0
0.7057176589965820,0.4860906600952148,0
0.6883340835571289,0.4930835723876953,0
0.6946918487548828,0.5029100418090821,0
0.6807947158813477,0.4859252929687500,0
0.6807947158813477,0.4930555343627929,0
0.7064146041870117,0.4870822906494141,0
0.6765872955322265,0.5017095565795898,0
0.6865779876708984,0.4913578033447266,0
0.6886373519897461,0.4948802947998047,0
0.7039941787719727,0.4885602951049804,0
0.6859399795532226,0.4972412109375000,0
0.7007366180419922,0.4925685882568359,0
0.6836454391479492,0.4830041885375976,0
0.6916883468627929,0.5114513397216797,0
0.6916883468627929,0.4837560653686523,0
0.6870792388916015,0.4957969665527344,0
0.6870792388916015,0.4957969665527344,0
0.6728616714477539,0.5040590286254882,0
0.6728616714477539,0.5040590286254882,0
0.6996740341186524,0.4895914077758789,0
0.6996740341186524,0.4895914077758789,0
0.6829084396362305,0.4962873458862305,0
0.6829084396362305,0.4962873458862305,0
0.6914731979370117,0.4838207244873047,0
0.6914731979370117,0.4838207244873047,0
0.6879632949829101,0.4946777343750000,0
0.6879632949829101,0.4946777343750000,0
0.6755235671997070,0.5008272171020508,0
0.6755235671997070,0.5008272171020508,0
0.7044393539428710,0.4836719512939453,0
0.7044393539428710,0.4836719512939453,0
0.6900163650512695,0.4864425659179688,0
0.6900163650512695,0.4864425659179688,0
0.7015165328979492,0.4677074432373047,0
0.7015165328979492,0.4677074432373047,0
0.7006502151489258,0.4719011306762695,0
0.7006502151489258,0.4719011306762695,0
0.6897754669189453,0.4732475280761719,0
0.6897754669189453,0.4732475280761719,0
0.7188302993774414,0.4546245574951172,0
0.7188302993774414,0.4546245574951172,0
0.7029693603515624,0.4589590072631836,0
0.7029693603515624,0.4589590072631836,0
0.7119541168212891,0.4457170486450195,0
0.7119541168212891,0.4457170486450195,0
0.7079137802124024,0.4571205139160156,0
0.7079137802124024,0.4571205139160156,0
0.6939233779907227,0.4652784347534180,0
0.6939233779907227,0.4652784347534180,0
0.7207059860229492,0.4514104843139648,0
0.7207059860229492,0.4514104843139648,0
0.7033000946044922,0.4593835830688476,0
0.7033000946044922,0.4593835830688476,0
0.7109573364257812,0.4488315582275391,0
0.7109573364257812,0.4488315582275391,0
0.7059299468994140,0.4623298645019531,0
0.7059299468994140,0.4623298645019531,0
0.6909090042114258,0.4721952438354492,0
0.6909090042114258,0.4721952438354492,0
0.7169420242309570,0.4597537994384766,0
0.7169420242309570,0.4597537994384766,0
0.6986852645874023,0.4689737319946289,0
0.6986852645874023,0.4689737319946289,0
0.7054636001586914,0.4596885681152343,0
0.7054636001586914,0.4596885681152343,0
0.6997215270996093,0.4744737625122070,0
0.6997215270996093,0.4744737625122070,0
0.6840694427490234,0.4852609634399414,0
0.6840694427490234,0.4852609634399414,0
0.7099857330322266,0.4728841781616211,0
0.6930427551269531,0.4728841781616211,0
0.6920282363891601,0.4813648223876953,0
0.6920282363891601,0.4813648223876953,0
0.6994869232177734,0.4705123901367188,0
0.6994869232177734,0.4705123901367188,0
0.6946706771850586,0.4832553863525391,0
0.6946706771850586,0.4832553863525391,0
0.6801366806030273,0.4918619155883789,0
0.6801366806030273,0.4918619155883789,0
0.7069845199584961,0.4778446197509765,0
0.7069845199584961,0.4778446197509765,0
0.6895986557006836,0.4851167678833008,0
0.6895986557006836,0.4851167678833008,0
0.6975191116333007,0.4734695434570312,0
0.6975191116333007,0.4734695434570312,0
0.6930307388305664,0.4855739593505859,0
0.6930307388305664,0.4855739593505859,0
0.6786907196044921,0.4936517715454101,0
0.6786907196044921,0.4936517715454101,0
0.7056312561035156,0.4792699813842773,0
0.7056312561035156,0.4792699813842773,0
0.6883106231689453,0.4862731933593750,0
0.6883106231689453,0.4862731933593750,0
0.6962259292602538,0.4745344161987304,0
0.6962259292602538,0.4745344161987304,0
0.6918268203735352,0.4865793228149414,0
0.6918268203735352,0.4865793228149414,0
0.6774587631225586,0.4948499679565430,0
0.6774587631225586,0.4948499679565430,0
0.7044496536254883,0.4807491302490234,0
0.7044496536254883,0.4807491302490234,0
0.6870494842529297,0.4876939773559570,0
0.6870494842529297,0.4876939773559570,0
0.6949327468872070,0.4761096954345703,0
0.6949327468872070,0.4761096954345703,0
0.6905530929565430,0.4883085250854492,0
0.6905530929565430,0.4883085250854492,0
0.6761238098144531,0.4966833114624023,0
0.6761238098144531,0.4966833114624023,0
0.7031747817993164,0.4823558807373047,0
0.7031747817993164,0.4823558807373047,0
0.6858598709106445,0.4894866943359375,0
0.6858598709106445,0.4894866943359375,0
0.6938673019409179,0.4777038574218750,0
0.6938673019409179,0.4777038574218750,0
0.6895889282226563,0.4899524688720703,0
0.6895889282226563,0.4899524688720703,0
0.6753759384155273,0.4983266830444336,0
0.6753759384155273,0.4983266830444336,0
0.7026294708251953,0.4839706420898438,0
0.7026294708251953,0.4839706420898438,0
0.6852350234985352,0.4911266326904297,0
0.6852350234985352,0.4911266326904297,0
0.6931005477905273,0.4794645309448242,0
0.6931005477905273,0.4794645309448242,0
0.6885606765747070,0.4915466308593750,0
0.6885606765747070,0.4915466308593750,0
0.6740867614746093,0.4997463226318359,0
0.6859405517578124,0.4997463226318359,0
0.7011400222778320,0.4853885650634766,0
0.7011400222778320,0.4853885650634766,0
0.6835430145263671,0.4924152374267578,0
0.6835430145263671,0.4924152374267578,0
0.6913839340209961,0.4809345245361328,0
0.6913839340209961,0.4809345245361328,0
0.6870397567749024,0.4928752899169921,0
0.6870397567749024,0.4928752899169921,0
0.6726333618164062,0.5010446548461914,0
0.6726333618164062,0.5010446548461914,0
0.6998434066772461,0.4866371154785156,0
0.6998434066772461,0.4866371154785156,0
0.6823945999145508,0.4937650680541992,0
0.6823945999145508,0.4937650680541992,0
0.6903287887573242,0.4820400238037109,0
0.6903287887573242,0.4820400238037109,0
0.6861093521118163,0.4940425872802734,0
0.6861093521118163,0.4940425872802734,0
0.6717418670654297,0.5020620346069335,0
0.6717418670654297,0.5020620346069335,0
0.6991521835327148,0.4876201629638672,0
0.6991521835327148,0.4876201629638672,0
0.6818624496459961,0.4946577072143554,0
0.6818624496459961,0.4946577072143554,0
0.6900049209594726,0.4827993392944336,0
0.6900049209594726,0.4827993392944336,0
0.6862306594848633,0.4945140838623047,0
0.6862306594848633,0.4945140838623047,0
0.6727724075317383,0.5017713546752930,0
0.6727724075317383,0.5017713546752930,0
0.7017534255981445,0.4856832504272461,0
0.7017534255981445,0.4856832504272461,0
0.6863840103149413,0.4901762008666992,0
0.6863840103149413,0.4901762008666992,0
0.6967929840087891,0.4749898910522461,0
0.6967929840087891,0.4749898910522461,0
0.6960176467895508,0.4804807662963867,0
0.6960176467895508,0.4804807662963867,0
0.6855377197265625,0.4802135467529297,0
0.6855377197265625,0.4802135467529297,0
0.7168190002441406,0.4578884124755859,0
0.7168190002441406,0.4578884124755859,0
0.7021591186523437,0.4595781326293945,0
0.7021591186523437,0.4595781326293945,0
0.7117933273315430,0.4446905136108398,0
0.7117933273315430,0.4446905136108398,0
0.7088172912597656,0.4547876358032226,0
0.7088172912597656,0.4547876358032226,0
0.6950592041015625,0.4618749618530273,0
0.6950592041015625,0.4618749618530273,0
0.7227882385253906,0.4470668792724609,0
0.7227882385253906,0.4470668792724609,0
0.7053171157836914,0.4543905258178711,0
0.7053171157836914,0.4543905258178711,0
0.7130201339721679,0.4434190750122070,0
0.7130201339721679,0.4434190750122070,0
0.7085952758789062,0.4562908172607422,0
0.7085952758789062,0.4562908172607422,0
0.6937923431396484,0.4655994415283203,0
0.6937923431396484,0.4655994415283203,0
0.7207763671874999,0.4524559020996093,0
0.7207763671874999,0.4524559020996093,0
0.7026094436645508,0.4610984802246094,0
0.7026094436645508,0.4610984802246094,0
0.7096527099609374,0.4512989044189453,0
0.7096527099609374,0.4512989044189453,0
0.7046092987060547,0.4653385162353516,0
0.7046092987060547,0.4653385162353516,0
0.6888170242309570,0.4760135650634765,0
0.6888170242309570,0.4760135650634765,0
0.7149341583251952,0.4645425796508789,0
0.7149341583251952,0.4645425796508789,0
0.6957899093627929,0.4744577407836914,0
0.6957899093627929,0.4744577407836914,0
0.7022689819335938,0.4651313781738281,0
0.7022689819335938,0.4651313781738281,0
0.6971197128295898,0.4791091918945312,0
0.6971197128295898,0.4791091918945312,0
0.6818424224853515,0.4882564544677734,0
0.6818424224853515,0.4882564544677734,0
0.7087806701660156,0.4748062133789062,0
0.7087806701660156,0.4748062133789062,0
0.6907499313354492,0.4824577331542969,0
0.6907499313354492,0.4824577331542969,0
0.6982521057128906,0.4711755752563476,0
0.6841135025024414,0.4711755752563476,0
0.6940784454345703,0.4834648132324219,0
0.6940784454345703,0.4834648132324219,0
0.6794614791870117,0.4916473388671875,0
0.6794614791870117,0.4916473388671875,0
0.7071527481079102,0.4773170471191406,0
0.6896038055419922,0.4773170471191406,0
0.6894973754882813,0.4844707489013672,0
0.6894973754882813,0.4844707489013672,0
0.6972198486328125,0.4728858947753906,0
0.6972198486328125,0.4728858947753906,0
0.6932155609130859,0.4849119186401367,0
0.6932155609130859,0.4849119186401367,0
0.6786638259887695,0.4930143356323242,0
0.6786638259887695,0.4930143356323242,0
0.7063556671142578,0.4786085128784179,0
0.7063556671142578,0.4786085128784179,0
0.6887111663818359,0.4857444763183594,0
0.6887111663818359,0.4857444763183594,0
0.6964284896850585,0.4742248535156250,0
0.6964284896850585,0.4742248535156250,0
0.6923944473266601,0.4864448547363281,0
0.6923944473266601,0.4864448547363281,0
0.6777975082397460,0.4944339752197265,0
0.6777975082397460,0.4944339752197265,0
0.7054733276367188,0.4801809310913085,0
0.7054733276367188,0.4801809310913085,0
0.6876525878906250,0.4874061584472656,0
0.6876525878906250,0.4874061584472656,0
0.6953458786010742,0.4758275985717773,0
0.6953458786010742,0.4758275985717773,0
0.6913049697875976,0.4880641937255859,0
0.6913049697875976,0.4880641937255859,0
0.6766508102416992,0.4961465835571289,0
0.6766508102416992,0.4961465835571289,0
0.7042310714721679,0.4819084167480469,0
0.7042310714721679,0.4819084167480469,0
0.6864366531372070,0.4891622543334961,0
0.6864366531372070,0.4891622543334961,0
0.6939611434936523,0.4776987075805664,0
0.6939611434936523,0.4776987075805664,0
0.6898727416992188,0.4897893905639648,0
0.6898727416992188,0.4897893905639648,0
0.6752185821533203,0.4978391647338867,0
0.6752185821533203,0.4978391647338867,0
0.7027559280395508,0.4836055755615234,0
0.7027559280395508,0.4836055755615234,0
0.6848848342895507,0.4907672882080078,0
0.6848848342895507,0.4907672882080078,0
0.6924264907836913,0.4792396545410156,0
0.6924264907836913,0.4792396545410156,0
0.6883981704711913,0.4913526535034179,0
0.6883981704711913,0.4913526535034179,0
0.6736627578735351,0.4994167327880859,0
0.6736627578735351,0.4994167327880859,0
0.7014341354370117,0.4849542617797851,0
0.7014341354370117,0.4849542617797851,0
0.6835578918457031,0.4922098159790039,0
0.6835578918457031,0.4922098159790039,0
0.6912797927856446,0.4806495666503906,0
0.6912797927856446,0.4806495666503906,0
0.7021871566772461,0.4867967605590820,0
0.7021871566772461,0.4867967605590820,0
0.6848436355590820,0.4948682785034180,0
0.6848436355590820,0.4948682785034180,0
0.6827728271484375,0.4906911849975586,0
0.6827728271484375,0.4906911849975586,0
0.6893697738647461,0.5019607543945312,0
0.6893697738647461,0.5019607543945312,0
0.6770610809326172,0.4929010391235351,0
0.6770610809326172,0.4929010391235351,0
0.7022489547729492,0.4872064590454102,0
0.7022489547729492,0.4872064590454102,0
0.6857185363769531,0.4942485809326171,0
0.6857185363769531,0.4942485809326171,0
0.6851978302001953,0.4885746002197265,0
0.6851978302001953,0.4885746002197265,0
0.6938735961914062,0.4972772598266602,0
0.6938735961914062,0.4972772598266602,0
0.6839092254638671,0.4846990585327148,0
0.6839092254638671,0.4846990585327148,0
0.7119987487792968,0.4725683212280273,0
0.7119987487792968,0.4725683212280273,0
0.7166181564331054,0.4719766616821289,0
0.7166181564331054,0.4591341018676758,0
0.7019451141357421,0.4598859786987304,0
0.7019451141357421,0.4598859786987304,0
0.7117338180541992,0.4445165634155273,0
0.7117338180541992,0.4445165634155273,0
0.7093477249145508,0.4540054321289062,0
0.7093477249145508,0.4540054321289062,0
0.6956159591674804,0.4606321334838867,0
0.6956159591674804,0.4606321334838867,0
0.7240676879882812,0.4455705642700195,0
0.7240676879882812,0.4455705642700195,0
0.7062126159667969,0.4527626037597656,0
0.7062126159667969,0.4527626037597656,0
0.7137399673461914,0.4417442321777343,0
0.7137399673461914,0.4417442321777343,0
0.7096372604370117,0.4545621871948242,0
0.7096372604370117,0.4545621871948242,0
0.6945985794067383,0.4636259078979492,0
0.6945985794067383,0.4636259078979492,0
0.7220952987670898,0.4503993988037109,0
0.7220952987670898,0.4503993988037109,0
0.7036342620849609,0.4590208053588867,0
0.7036342620849609,0.4590208053588867,0
0.7105436325073242,0.4492750167846680,0
0.7105436325073242,0.4492750167846680,0
0.7058446884155273,0.4632099151611328,0
0.7058446884155273,0.4632099151611328,0
0.6900260925292968,0.4736864089965820,0
0.6900260925292968,0.4736864089965820,0
0.7166067123413086,0.4619333267211914,0
0.7166067123413086,0.4619333267211914,0
0.6971128463745117,0.4721534729003906,0
0.6971128463745117,0.4721534729003906,0
0.7032732009887696,0.4633626937866211,0
0.7032732009887696,0.4633626937866211,0
0.6982114791870117,0.4773662567138672,0
0.6982114791870117,0.4773662567138672,0
0.6826194763183594,0.4868448257446289,0
0.6826194763183594,0.4868448257446289,0
0.7100440979003906,0.4734729766845703,0
0.7100440979003906,0.4734729766845703,0
0.6916374206542969,0.4813573837280273,0
0.6916374206542969,0.4813573837280273,0
0.6989639282226562,0.4703538894653320,0
0.6989639282226562,0.4703538894653320,0
0.6950786590576171,0.4827529907226562,0
0.6950786590576171,0.4827529907226562,0
0.6803157806396484,0.4907335281372070,0
0.6803157806396484,0.4907335281372070,0
0.7083818435668945,0.4763872146606445,0
0.7083818435668945,0.4763872146606445,0
0.6905130386352539,0.4836633682250976,0
0.6905130386352539,0.4836633682250976,0
0.6980535507202148,0.4721740722656250,0
0.6980535507202148,0.4721740722656250,0
0.6942712783813476,0.4842435836791992,0
0.6942712783813476,0.4842435836791992,0
0.6795684814453125,0.4921617507934570,0
0.6795684814453125,0.4921617507934570,0
0.7075790405273438,0.4776981353759766,0
0.7075790405273438,0.4776981353759766,0
0.6895906448364257,0.4848678588867187,0
0.6895906448364257,0.4848678588867187,0
0.6970933914184571,0.4734701156616211,0
0.6970933914184571,0.4734701156616211,0
0.6932813644409179,0.4855922698974609,0
0.6932813644409179,0.4855922698974609,0
0.6784521102905273,0.4936128616333008,0
0.6784521102905273,0.4936128616333008,0
0.7064134597778320,0.4793655395507812,0
0.7064134597778320,0.4793655395507812,0
0.6883443832397461,0.4865936279296875,0
0.6883443832397461,0.4865936279296875,0
0.6957607269287109,0.4753011703491211,0
0.6957607269287109,0.4753011703491211,0
0.6919315338134765,0.4874959945678711,0
0.6919315338134765,0.4874959945678711,0
0.6771308898925781,0.4953454971313476,0
0.6771308898925781,0.4953454971313476,0
0.7051534652709961,0.4811153411865234,0
0.7051534652709961,0.4811153411865234,0
0.6869922637939453,0.4883657455444336,0
0.6869922637939453,0.4883657455444336,0
0.6944406509399413,0.4770166397094726,0
0.6944406509399413,0.4770166397094726,0
0.6906400680541992,0.4890781402587890,0
0.6906400680541992,0.4890781402587890,0
0.6757472991943360,0.4969768524169922,0
0.6757472991943360,0.4969768524169922,0
0.7037710189819336,0.4826345443725586,0
0.7037710189819336,0.4826345443725586,0
0.6855588912963867,0.4899456024169921,0
0.6855588912963867,0.4899456024169921,0
0.6930290222167969,0.4785369873046875,0
0.6930290222167969,0.4785369873046875,0
0.6891523361206054,0.4907106399536132,0
0.7038631439208984,0.4869981765747070,0
0.6743104934692382,0.4985321044921875,0
0.6743104934692382,0.4985321044921875,0
0.7024921417236328,0.4846464157104492,0
0.7024921417236328,0.4846464157104492,0
0.6842617034912110,0.4913526535034179,0
0.6842617034912110,0.4913526535034179,0
0.6917255401611327,0.4800882339477539,0
0.6917255401611327,0.4800882339477539,0
0.6880079269409179,0.4921611785888672,0
0.6880079269409179,0.4921611785888672,0
0.6732507705688476,0.4998802185058593,0
0.6732507705688476,0.4998802185058593,0
0.7013048171997071,0.4855419158935547,0
0.7013048171997071,0.4855419158935547,0
0.6832637786865234,0.4927488327026367,0
0.6832637786865234,0.4927488327026367,0
0.6907773971557617,0.4812561035156250,0
0.6907773971557617,0.4812561035156250,0
0.6872915267944336,0.4931974411010742,0
0.6872915267944336,0.4931974411010742,0
0.6728731155395508,0.5005216598510742,0
0.6728731155395508,0.5005216598510742,0
0.7018089294433594,0.4854257583618164,0
0.7018089294433594,0.4854257583618164,0
0.6852590560913085,0.4909469604492187,0
0.6852590560913085,0.4909469604492187,0
0.6949155807495117,0.4770298004150391,0
0.6949155807495117,0.4770298004150391,0
0.6939794540405273,0.4849954605102539,0
0.6939794540405273,0.4849954605102539,0
0.6829971313476563,0.4852128982543945,0
0.6829971313476563,0.4852128982543945,0
0.7158296585083007,0.4612569808959961,0
0.7158296585083007,0.4612569808959961,0
0.7018690109252930,0.4602602005004883,0
0.7018690109252930,0.4602602005004883,0
0.7122974395751953,0.4435724258422851,0
0.7122974395751953,0.4435724258422851,0
0.7106277465820312,0.4521858215332031,0
0.7106277465820312,0.4521858215332031,0
0.6971082687377930,0.4576417922973632,0
0.6971082687377930,0.4576417922973632,0
0.7262397766113281,0.4422174453735351,0
0.7262397766113281,0.4422174453735351,0
0.7085306167602539,0.4488281250000000,0
0.7085306167602539,0.4488281250000000,0
0.7162061691284179,0.4374549865722656,0
0.7029561996459961,0.4490140914916992,0
0.7270402908325195,0.4442796707153320,0
0.6974870681762695,0.4581911087036132,0
0.7255405426025391,0.4366498947143554,0
0.7070262908935546,0.4402753829956055,0
0.7070262908935546,0.4526762008666992,0
0.7141725540161132,0.4422117233276367,0
0.7007635116577148,0.4541994094848633,0
0.7244401931762695,0.4503158569335937,0
0.6945522308349609,0.4712825775146484,0
0.7219425201416015,0.4445526123046875,0
0.7219425201416015,0.4580886840820312,0
0.7024972915649413,0.4617799758911132,0
0.7085266113281250,0.4532186508178710,0
0.6946832656860351,0.4661750793457031,0
0.7173139572143554,0.4669481277465820,0
0.7173139572143554,0.4790491104125976,0
0.6986423492431640,0.4746168136596680,0
0.6949745178222656,0.4730918884277344,0
0.6947359085083008,0.4762796401977539,0
0.7015010833740234,0.4661378860473633,0
0.6879661560058593,0.4704448699951171,0
0.7117366790771484,0.4737327575683594,0
0.6820861816406250,0.4737327575683594,0
0.7102346420288086,0.4655897140502929,0
0.7102346420288086,0.4736595153808594,0
0.6919509887695312,0.4811759948730469,0
0.6994188308715820,0.4698062896728515,0
0.6863433837890625,0.4732635498046875,0
0.7104892730712891,0.4783195495605468,0
0.7104892730712891,0.4762630462646484,0
0.7094890594482421,0.4840982437133789,0
0.7094890594482421,0.4755363464355469,0
0.6913255691528321,0.4827426910400390,0
0.6988031387329101,0.4714027404785156,0
0.6857276916503906,0.4828760147094726,0
0.7097700119018554,0.4780981063842773,0
0.6802751541137695,0.4976938247680664,0
0.7085798263549804,0.4770835876464843,0
0.6902017593383789,0.4717924118041992,0
0.6975362777709960,0.4926469802856445,0
0.6975362777709960,0.4731250762939453,0
0.6938638687133789,0.4854154586791992,0
0.6789459228515625,0.4931854248046875,0
0.6911384582519531,0.4931854248046875,0
0.6885560989379883,0.4789924621582031,0
0.6888628005981445,0.4863555908203125,0
0.6953172683715820,0.4766046524047851,0
0.6830537796020507,0.4785867691040039,0
0.6830537796020507,0.4865867614746093,0
0.7069656372070312,0.4814752578735351,0
0.6774610519409180,0.4950479507446289,0
0.7056884765625000,0.4808618545532226,0
0.6870443344116210,0.4808618545532226,0
0.6872966766357421,0.4880928039550781,0
0.6937837600708008,0.4960046768188476,0
0.6815237045288086,0.4882404327392578,0
0.6908683776855469,0.4882404327392578,0
0.7055156707763671,0.4833211898803711,0
0.6759258270263672,0.4967370986938476,0
0.7042058944702149,0.4823678970336914,0
0.6854753494262695,0.5119817733764648,0
0.6922376632690429,0.4799297332763672,0
0.6922376632690429,0.4979129791259765,0
0.6799547195434570,0.4898426055908203,0
0.6893726348876953,0.4835289001464844,0
0.6743299484252929,0.5044939041137695,0
0.6743299484252929,0.4981819152832031,0
0.7026226043701171,0.4839992523193359,0
0.6843618392944336,0.4785861968994141,0
0.6917627334594726,0.4993120193481445,0
0.6917627334594726,0.4912359237670898,0
0.6882402420043945,0.4918590545654297,0
0.6734298706054688,0.5056869506835937,0
0.6857671737670898,0.4993978500366211,0
0.7019891738891602,0.4850812911987304,0
0.6834136962890625,0.4898832321166992,0
0.6906858444213867,0.5001897811889648,0
0.6918359756469726,0.5001897811889648,0
0.6891912460327149,0.4914173126220703,0
0.6891912460327149,0.4915351867675781,0
0.6758966445922852,0.4973178863525390,0
0.6892009735107422,0.4829853057861328,0
0.6891466140747070,0.5064062118530274,0
0.6891466140747070,0.4832977294921875,0
0.6994766235351563,0.4873838424682617,0
0.7024320602416992,0.4633134841918945,0
0.7034505844116211,0.4657831192016602,0
0.7202259063720703,0.4657831192016602,0
0.6925792694091797,0.4657293319702148,0
0.7063196182250976,0.4574169158935547,0
0.7060781478881836,0.4496566772460938,0
0.7072900772094727,0.4496566772460938,0
0.7145296096801758,0.4576154708862304,0
0.7159154891967773,0.4371929168701172,0
0.7130859374999999,0.4484825134277344,0
0.7278699874877930,0.4445142745971680,0
0.7109024047851562,0.4557546615600586,0
0.7109024047851562,0.4501287460327148,0
0.7082736968994140,0.4466491699218750,0
0.7086135864257812,0.4367002487182617,0
0.7158050537109375,0.4668067932128906,0
0.7158050537109375,0.4384786605834961,0
0.7119501113891601,0.4513984680175781,0
0.7264165878295898,0.4460083007812500,0
0.7088327407836914,0.4546594619750977,0
0.7088327407836914,0.4546594619750977,0
0.7058132171630859,0.4520559310913086,0
0.7059820175170898,0.4550102233886719,0
0.7127357482910156,0.4450532913208008,0
0.6993764877319336,0.4450532913208008,0
0.7223562240600586,0.4593589782714844,0
0.7223562240600586,0.4548236846923828,0
0.7191976547241211,0.4583684921264648,0
0.6998079299926757,0.4569545745849609,0
0.7005620956420898,0.4684856414794922,0
0.7145982742309570,0.4843139648437500,0
0.6966642379760742,0.4793025970458984,0
0.6934988021850585,0.4764925003051758,0
0.6937339782714843,0.4764925003051758,0
0.7008396148681640,0.4875040054321289,0
0.7008396148681640,0.4680679321289062,0
0.6972112655639648,0.4805860519409180,0
0.7117916107177734,0.4770893096923828,0
0.6946460723876953,0.4827346801757812,0
0.6921970367431640,0.4790479660034179,0
0.6926565170288086,0.4790479660034179,0
0.7001581192016602,0.4895605087280273,0
0.7001581192016602,0.4700042724609375,0
0.6967237472534179,0.4822340011596680,0
0.7112989425659180,0.4765451431274414,0
0.6941551208496094,0.4779132843017578,0
0.6941551208496094,0.4843986511230469,0
0.6915533065795898,0.4806158065795898,0
0.6919183731079102,0.4830396652221680,0
0.6991825103759766,0.4716917037963867,0
0.6861476898193359,0.4716917037963867,0
0.7099485397338867,0.4839843750000000,0
0.7099485397338867,0.4782400131225586,0
0.6926404953002929,0.4861118316650390,0
0.7087434768676758,0.4695545196533203,0
0.6902423858642578,0.4724401473999023,0
0.6902423858642578,0.4849760055541992,0
0.6974584579467773,0.4736148834228515,0
0.6843601226806640,0.4852787017822265,0
0.7082084655761719,0.4801889419555664,0
0.6787084579467774,0.4817321777343750,0
0.6909210205078125,0.4881797790527344,0
0.6886013031005859,0.4743947982788086,0
0.6886013031005859,0.4869918823242188,0
0.6959077835083007,0.4756055831909179,0
0.6923870086669922,0.4879755020141601,0
0.7069135665893554,0.4879755020141601,0
0.6774444580078125,0.4956041336059570,0
0.6774444580078125,0.4956041336059570,0
0.7057989120483398,0.4814340591430664,0
0.7057989120483398,0.4814340591430664,0
0.6874563217163085,0.4886890411376953,0
0.6874563217163085,0.4886890411376953,0
0.6947370529174804,0.4772254943847656,0
0.6947370529174804,0.4772254943847656,0
0.6911607742309570,0.4895719528198242,0
0.6911607742309570,0.4895719528198242,0
0.6763063430786133,0.4972726821899414,0
0.6763063430786133,0.4972726821899414,0
0.7045738220214843,0.4829429626464843,0
0.7045738220214843,0.4829429626464843,0
0.6862958908081055,0.4901847839355469,0
0.6862958908081055,0.4901847839355469,0
0.6936716079711914,0.4786628723144531,0
0.6936716079711914,0.4786628723144531,0
0.6901405334472656,0.4910133361816406,0
0.6901405334472656,0.4910133361816406,0
0.6752323150634766,0.4985853195190429,0
0.6752323150634766,0.4985853195190429,0
0.7035890579223633,0.4843076705932617,0
0.7035890579223633,0.4843076705932617,0
0.6853546142578125,0.4914167404174805,0
0.6853546142578125,0.4914167404174805,0
0.6927509307861328,0.4800104141235351,0
0.6927509307861328,0.4800104141235351,0
0.6892295837402344,0.4922309875488281,0
0.6892295837402344,0.4922309875488281,0
0.6743745803833008,0.4998035430908203,0
0.6743745803833008,0.4998035430908203,0
0.7026969909667968,0.4854990005493164,0
0.7026969909667968,0.4854990005493164,0
0.6846256256103516,0.4924861907958984,0
0.6846256256103516,0.4924861907958984,0
0.6923114776611328,0.4807422637939453,0
0.6923114776611328,0.4807422637939453,0
0.6892925262451172,0.4926012039184570,0
0.6892925262451172,0.4926012039184570,0
0.6754474639892578,0.4990957260131836,0
0.6754474639892578,0.4990957260131836,0
0.7055574417114258,0.4829830169677734,0
0.7055574417114258,0.4829830169677734,0
0.6896947860717774,0.4871057510375976,0
0.6896947860717774,0.4871057510375976,0
0.7002599716186523,0.4702726364135742,0
0.7002599716186523,0.4702726364135742,0
0.7008230209350585,0.4735582351684570,0
0.7008230209350585,0.4735582351684570,0
0.6905439376831054,0.4715263366699218,0
0.6905439376831054,0.4715263366699218,0
0.7224403381347656,0.4502695083618164,0
0.7224403381347656,0.4502695083618164,0
0.7067087173461913,0.4528295516967773,0
0.7067087173461913,0.4528295516967773,0
0.7158828735351562,0.4384609222412109,0
0.7158828735351562,0.4384609222412109,0
0.7133228302001953,0.4490575790405273,0
0.7133228302001953,0.4490575790405273,0
0.6990194320678711,0.4559137344360351,0
0.6990194320678711,0.4559137344360351,0
0.7274677276611328,0.4413602828979492,0
0.7274677276611328,0.4413602828979492,0
0.7092704772949219,0.4488487243652344,0
0.7092704772949219,0.4488487243652344,0
0.7165637969970703,0.4379362106323242,0
0.7165637969970703,0.4379362106323242,0
0.7126613616943359,0.4508640289306640,0
0.7126613616943359,0.4508640289306640,0
0.6975683212280274,0.4595718383789062,0
0.6975683212280274,0.4595718383789062,0
0.7254404067993164,0.4462080001831055,0
0.7254404067993164,0.4462080001831055,0
0.7067459106445312,0.4546394348144531,0
0.7067459106445312,0.4546394348144531,0
0.7135608673095702,0.4446710586547851,0
0.7135608673095702,0.4446710586547851,0
0.7091548919677734,0.4586717605590820,0
0.7091548919677734,0.4586717605590820,0
0.6932962417602538,0.4686962127685547,0
0.6932962417602538,0.4686962127685547,0
0.7201709747314453,0.4572710037231445,0
0.7201709747314453,0.4572710037231445,0
0.7004230499267577,0.4676130294799805,0
0.7004230499267577,0.4676130294799805,0
0.7063310623168945,0.4592330932617187,0
0.7063310623168945,0.4592330932617187,0
0.7013139724731445,0.4741046905517578,0
0.7013139724731445,0.4741046905517578,0
0.6852275848388671,0.4839014053344726,0
0.6852275848388671,0.4839014053344726,0
0.7125766754150390,0.4709638595581054,0
0.7125766754150390,0.4709638595581054,0
0.6937213897705078,0.4792739868164062,0
0.6937213897705078,0.4792739868164062,0
0.7007623672485351,0.4684141159057617,0
0.7007623672485351,0.4684141159057617,0
0.6969434738159179,0.4810495376586914,0
0.6969434738159179,0.4810495376586914,0
0.6820381164550781,0.4889333724975586,0
0.6820381164550781,0.4889333724975586,0
0.7101728439331054,0.4748308181762695,0
0.7101728439331054,0.4748308181762695,0
0.6920202255249023,0.4821498870849609,0
0.6920202255249023,0.4821498870849609,0
0.6995813369750976,0.4707069396972656,0
0.6995813369750976,0.4707069396972656,0
0.6960033416748047,0.4828983306884765,0
0.6960033416748047,0.4828983306884765,0
0.6813182830810547,0.4906608581542968,0
0.6813182830810547,0.4906608581542968,0
0.7094816207885742,0.4763769149780273,0
0.7094816207885742,0.4763769149780273,0
0.6913707733154296,0.4836639404296875,0
0.6913707733154296,0.4836639404296875,0
0.6988117218017578,0.4721414566040039,0
0.6988117218017578,0.4721414566040039,0
0.6951644897460937,0.4845771789550781,0
0.6951644897460937,0.4845771789550781,0
0.6802722930908203,0.4923122406005859,0
0.6802722930908203,0.4923122406005859,0
0.7082868576049804,0.4781702041625976,0
0.7082868576049804,0.4781702041625976,0
0.6899951934814453,0.4856145858764648,0
0.6899951934814453,0.4856145858764648,0
0.6973617553710937,0.4741241455078125,0
0.6973617553710937,0.4741241455078125,0
0.6935142517089844,0.4864568710327148,0
0.6935142517089844,0.4864568710327148,0
0.6785276412963867,0.4944368362426758,0
0.6785276412963867,0.4944368362426758,0
0.7065954208374023,0.4801620483398437,0
0.7065954208374023,0.4801620483398437,0
0.6883924484252929,0.4875154495239258,0
0.6883924484252929,0.4875154495239258,0
0.6958076477050781,0.4761096954345703,0
0.6958076477050781,0.4761096954345703,0
0.6919853210449218,0.4884744644165039,0
0.6919853210449218,0.4884744644165039,0
0.6771669387817383,0.4963800430297851,0
0.6771669387817383,0.4963800430297851,0
0.7052255630493164,0.4820320129394531,0
0.6868125915527343,0.4820320129394531,0
0.6869756698608398,0.4892766952514648,0
0.6869756698608398,0.4892766952514648,0
0.6943536758422851,0.4779155731201172,0
0.6943536758422851,0.4779155731201172,0
0.6904535293579102,0.4900651931762695,0
0.6904535293579102,0.4900651931762695,0
0.6756351470947265,0.4978757858276367,0
0.6756351470947265,0.4978757858276367,0
0.7036920547485351,0.4834774017333984,0
0.7036920547485351,0.4834774017333984,0
0.6854284286499023,0.4907838821411132,0
0.6854284286499023,0.4907838821411132,0
0.6929500579833984,0.4792797088623046,0
0.6929500579833984,0.4792797088623046,0
0.6891723632812500,0.4914968490600586,0
0.6891723632812500,0.4914968490600586,0
0.6743368148803711,0.4992553710937500,0
0.6743368148803711,0.4992553710937500,0
0.7025590896606445,0.4849216461181640,0
0.7025590896606445,0.4849216461181640,0
0.6845066070556640,0.4921302795410156,0
0.6845066070556640,0.4921302795410156,0
0.6920682907104492,0.4805774688720703,0
0.6920682907104492,0.4805774688720703,0
0.6884250640869141,0.4927076339721679,0
0.6884250640869141,0.4927076339721679,0
0.6736639022827148,0.5003797531127929,0
0.6736639022827148,0.5003797531127929,0
0.7018632888793945,0.4859241485595703,0
0.7018632888793945,0.4859241485595703,0
0.6837833404541015,0.4931184768676757,0
0.6837833404541015,0.4931184768676757,0
0.6913290023803711,0.4814283370971679,0
0.6913290023803711,0.4814283370971679,0
0.6878007888793946,0.4935195922851562,0
0.6878007888793946,0.4935195922851562,0
0.6733280181884765,0.5010503768920899,0
0.6733280181884765,0.5010503768920899,0
0.7020818710327148,0.4861095428466797,0
0.7020818710327148,0.4861095428466797,0
0.6854610443115234,0.4920930862426758,0
0.6854610443115234,0.4920930862426758,0
0.6950746536254883,0.4783939361572265,0
0.6950746536254883,0.4783939361572265,0
0.6938581466674805,0.4873323440551758,0
0.6938581466674805,0.4873323440551758,0
0.6822710037231445,0.4894145965576172,0
0.6822710037231445,0.4894145965576172,0
0.7145765304565429,0.4662723541259766,0
0.7145765304565429,0.4662723541259766,0
0.7008762359619141,0.4645734786987304,0
0.7008762359619141,0.4645734786987304,0
0.7116783142089843,0.4468362808227539,0
0.7116783142089843,0.4468362808227539,0
0.7100498199462890,0.4550514221191406,0
0.7256034851074219,0.4550514221191406,0
0.6966871261596680,0.4605234146118164,0
0.6966871261596680,0.4605234146118164,0
0.7253528594970703,0.4449445724487305,0
0.7253528594970703,0.4449445724487305,0
0.7077409744262695,0.4518922805786132,0
0.7143310546875000,0.4518922805786132,0
0.7152906417846679,0.4405998229980468,0
0.7152906417846679,0.4405998229980468,0
0.7113006591796874,0.4535837173461914,0
0.7113006591796874,0.4535837173461914,0
0.6962104797363281,0.4623086929321289,0
0.6962104797363281,0.4623086929321289,0
0.7236688613891601,0.4491279602050781,0
0.7236688613891601,0.4491279602050781,0
0.7051786422729492,0.4575988769531250,0
0.7051786422729492,0.4575988769531250,0
0.7120960235595702,0.4473495483398438,0
0.7120960235595702,0.4473495483398438,0
0.7076677322387696,0.4609428405761719,0
0.7076677322387696,0.4609428405761719,0
0.6922279357910156,0.4705530166625976,0
0.6922279357910156,0.4705530166625976,0
0.7192085266113281,0.4579502105712890,0
0.7192085266113281,0.4579502105712890,0
0.7000637054443359,0.4678236007690429,0
0.7000637054443359,0.4678236007690429,0
0.7063653945922851,0.4590156555175781,0
0.7063653945922851,0.4590156555175781,0
0.7011142730712890,0.4739707946777343,0
0.7011142730712890,0.4739707946777343,0
0.6851652145385742,0.4843431472778320,0
0.6851652145385742,0.4843431472778320,0
0.7121040344238281,0.4718009948730468,0
0.7121040344238281,0.4718009948730468,0
0.6933935165405273,0.4803211212158203,0
0.6933935165405273,0.4803211212158203,0
0.7004625320434570,0.4696689605712890,0
0.7004625320434570,0.4696689605712890,0
0.6962802886962890,0.4823656082153320,0
0.6962802886962890,0.4823656082153320,0
0.6812959671020508,0.4906785964965820,0
0.6812959671020508,0.4906785964965820,0
0.7090456008911132,0.4764444351196289,0
0.6910366058349610,0.5061618804931640,0
0.6910366058349610,0.4811090469360351,0
0.6976192474365234,0.4925033569335937,0
0.6976192474365234,0.4925033569335937,0
0.6850896835327148,0.4839191436767578,0
0.6850896835327148,0.4839191436767578,0
0.7097906112670899,0.4785140991210937,0
0.7097906112670899,0.4785140991210937,0
0.6924379348754882,0.4865982055664062,0
0.6924379348754882,0.4865982055664062,0
0.6903224945068359,0.4827163696289062,0
0.6903224945068359,0.4827163696289062,0
0.6969886779785156,0.4940139770507812,0
0.6969886779785156,0.4940139770507812,0
0.6844247817993164,0.4852460861206054,0
0.6844247817993164,0.4852460861206054,0
0.7091011047363281,0.4799343109130859,0
0.7091011047363281,0.4799343109130859,0
0.6915464401245117,0.4881488800048828,0
0.6915464401245117,0.4881488800048828,0
0.6893949508666992,0.4842538833618164,0
0.6893949508666992,0.4842538833618164,0
0.6957206726074219,0.4957729339599609,0
0.6957206726074219,0.4957729339599609,0
0.6829771041870117,0.4870965957641601,0
0.6829771041870117,0.4870965957641601,0
0.7074926376342773,0.4818557739257812,0
0.7074926376342773,0.4818557739257812,0
0.6899105072021484,0.4900920867919922,0
0.6899105072021484,0.4900920867919922,0
0.6876211166381836,0.4861347198486328,0
0.6876211166381836,0.4861347198486328,0
0.6939840316772461,0.4977333068847656,0
0.6939840316772461,0.4977333068847656,0
0.6812215805053711,0.4890277862548828,0
0.6812215805053711,0.4890277862548828,0
0.7057977676391601,0.4836627960205078,0
0.7057977676391601,0.4836627960205078,0
0.6881990432739258,0.4918653488159179,0
0.6881990432739258,0.4918653488159179,0
0.6860372543334960,0.4879531860351562,0
0.6860372543334960,0.4879531860351562,0
0.6923892974853515,0.4995906829833984,0
0.6923892974853515,0.4995906829833984,0
0.6796937942504883,0.4906957626342773,0
0.6796937942504883,0.4906957626342773,0
0.7043672561645508,0.4852117538452148,0
0.7043672561645508,0.4852117538452148,0
0.6868343353271484,0.4934103012084960,0
0.6868343353271484,0.4934103012084960,0
0.6847051620483399,0.4893939971923828,0
0.6847051620483399,0.4893939971923828,0
0.6911539077758789,0.5009702682495117,0
0.6911539077758789,0.5009702682495117,0
0.6784538269042969,0.4920661926269531,0
0.6784538269042969,0.4920661926269531,0
0.7032840728759765,0.4865701675415039,0
0.7032840728759765,0.4865701675415039,0
0.6858461380004882,0.4946805953979492,0
0.6858461380004882,0.4946805953979492,0
0.6837747573852538,0.4905761718750000,0
0.6837747573852538,0.4905761718750000,0
0.6901857376098632,0.5022651672363281,0
0.6901857376098632,0.5022651672363281,0
0.6774066925048828,0.4932140350341797,0
0.6774066925048828,0.4932140350341797,0
0.7023193359375000,0.4877529144287109,0
0.7023193359375000,0.4877529144287109,0
0.6847738265991211,0.4958295822143555,0
0.6847738265991211,0.4958295822143555,0
0.6827573776245117,0.4916925430297852,0
0.6827573776245117,0.4916925430297852,0
0.6893262863159180,0.5032945632934570,0
0.6893262863159180,0.5032945632934570,0
0.6766771316528321,0.4942399978637695,0
0.6766771316528321,0.4942399978637695,0
0.7019302368164062,0.4884052276611328,0
0.7019302368164062,0.4884052276611328,0
0.6850965499877929,0.4960556030273438,0
0.6850965499877929,0.4960556030273438,0
0.6843057632446289,0.4907506942749023,0
0.6843057632446289,0.4907506942749023,0
0.6927085876464844,0.5002447128295898,0
0.6927085876464844,0.5002447128295898,0
0.6824987411499023,0.4881420135498047,0
0.6824987411499023,0.4881420135498047,0
0.7105407714843750,0.4772174835205078,0
0.7105407714843750,0.4772174835205078,0
0.6971260070800781,0.4769308090209960,0
0.6971260070800781,0.4769308090209960,0
0.6993633270263672,0.4640253067016601,0
0.6993633270263672,0.4640253067016601,0
0.7089963912963867,0.4694835662841796,0
0.7089963912963867,0.4694835662841796,0
0.6982635498046875,0.4567010879516601,0
0.6982635498046875,0.4567010879516601,0
0.7244356155395507,0.4488750457763672,0
0.7244356155395507,0.4488750457763672,0
0.7076814651489257,0.4562084197998046,0
0.7076814651489257,0.4562084197998046,0
0.7059482574462891,0.4518688201904297,0
0.7059482574462891,0.4518688201904297,0
0.7121961593627929,0.4640939712524414,0
0.7121961593627929,0.4640939712524414,0
0.6991018295288086,0.4559040069580078,0
0.6991018295288086,0.4559040069580078,0
0.7235309600830078,0.4516788482666015,0
0.7235309600830078,0.4516788482666015,0
0.7054613113403320,0.4614320755004883,0
0.7054613113403320,0.4614320755004883,0
0.7028085708618164,0.4587993621826172,0
0.7028085708618164,0.4587993621826172,0
0.7084247589111328,0.4721872329711914,0
0.7084247589111328,0.4721872329711914,0
0.6948074340820313,0.4649814605712890,0
0.6948074340820313,0.4649814605712890,0
0.7188852310180663,0.4614343643188477,0
0.7188852310180663,0.4614343643188477,0
0.7002124786376953,0.4721008300781250,0
0.7002124786376953,0.4721008300781250,0
0.6970378875732421,0.4707138061523437,0
0.6970378875732421,0.4707138061523437,0
0.7020652770996093,0.4851636886596680,0
0.7020652770996093,0.4851636886596680,0
0.6880645751953125,0.4785346984863281,0
0.6880645751953125,0.4785346984863281,0
0.7120645523071288,0.4747266769409180,0
0.7120645523071288,0.4747266769409180,0
0.6938220977783203,0.4839866638183594,0
0.6938220977783203,0.4839866638183594,0
0.6912517547607422,0.4808612823486328,0
0.6912517547607422,0.4808612823486328,0
0.6971935272216797,0.4932443618774414,0
0.6971935272216797,0.4932443618774414,0
0.6840293884277343,0.4844821929931640,0
0.6840293884277343,0.4844821929931640,0
0.7088727951049805,0.4791269302368164,0
0.7088727951049805,0.4791269302368164,0
0.6912609100341797,0.4876081466674804,0
0.6912609100341797,0.4876081466674804,0
0.6893909454345702,0.4834465026855468,0
0.6893909454345702,0.4834465026855468,0
0.6957698822021484,0.4952997207641601,0
0.6957698822021484,0.4952997207641601,0
0.6831247329711914,0.4862039566040039,0
0.6831247329711914,0.4862039566040039,0
0.7083498001098633,0.4806724548339844,0
0.7083498001098633,0.4806724548339844,0
0.6909267425537109,0.4889745712280273,0
0.6909267425537109,0.4889745712280273,0
0.6891117095947266,0.4848569869995117,0
0.6891117095947266,0.4848569869995117,0
0.6955198287963867,0.4964578628540039,0
0.6955198287963867,0.4964578628540039,0
0.6826475143432617,0.4874073028564453,0
0.6826475143432617,0.4874073028564453,0
0.7076259613037109,0.4819702148437500,0
0.7076259613037109,0.4819702148437500,0
0.6899551391601563,0.4902608871459961,0
0.6899551391601563,0.4902608871459961,0
0.6878442764282227,0.4861169815063476,0
0.6878442764282227,0.4861169815063476,0
0.6941110610961914,0.4980709075927734,0
0.6941110610961914,0.4980709075927734,0
0.6811832427978516,0.4890970230102539,0
0.6811832427978516,0.4890970230102539,0
0.7060970306396485,0.4835763931274414,0
0.7060970306396485,0.4835763931274414,0
0.6884376525878906,0.4920421600341797,0
0.6884376525878906,0.4920421600341797,0
0.6863874435424805,0.4879629135131835,0
0.6863874435424805,0.4879629135131835,0
0.6925649642944336,0.4999723434448242,0
0.6925649642944336,0.4999723434448242,0
0.6796228408813476,0.4909578323364258,0
0.6796228408813476,0.4909578323364258,0
0.7046419143676758,0.4854612350463867,0
0.7046419143676758,0.4854612350463867,0
0.6869321823120117,0.4938079833984375,0
0.6869321823120117,0.4938079833984375,0
0.6848711013793946,0.4898643493652344,0
0.6848711013793946,0.4898643493652344,0
0.6911081314086914,0.5016300201416015,0
0.6911081314086914,0.5016300201416015,0
0.6781105041503906,0.4926240921020508,0
0.6781105041503906,0.4926240921020508,0
0.7030477523803711,0.4870800018310547,0
0.6734058380126953,0.5013479232788086,0
0.7009700775146485,0.4868253707885742,0
0.6834840774536133,0.5166023254394531,0
0.6898241043090820,0.4940368652343750,0
0.6910646438598632,0.4824045181274414,0
0.6768836975097656,0.4939664840698242,0
0.7019536972045898,0.4884458541870117,0
0.6723506927490234,0.5088666915893555,0
0.6845426559448242,0.4967067718505859,0
0.6826492309570312,0.4925828933715820,0
0.6824054718017578,0.4952985763549804,0
0.6902132034301758,0.4835660934448242,0
0.6761117935180664,0.4874021530151367,0
0.7013677597045899,0.4912605285644531,0
0.6840597152709961,0.5035955429077148,0
0.6840597152709961,0.4975656509399414,0
0.6828311920166016,0.4929130554199219,0
0.6830045700073242,0.4952322006225586,0
0.6922416687011719,0.5092197418212890,0
0.6902235031127929,0.4840398788452148,0
0.6902235031127929,0.4919603347778320,0
0.6781597137451172,0.4968475341796875,0
0.7087995529174804,0.4768999099731445,0
0.6932607650756836,0.5009428024291992,0
0.7035169601440430,0.4611173629760742,0
0.7035169601440430,0.4812641143798828,0
0.6941076278686523,0.4650672912597656,0
0.7215396881103515,0.4551956176757812,0
0.6925552368164062,0.4680450439453125,0
0.7211231231689453,0.4519758224487305,0
0.7039855957031250,0.4810964584350585,0
0.7105024337768554,0.4585979461669922,0
0.7117115020751953,0.4472568511962891,0
0.6974258422851562,0.4592056274414062,0
0.7222297668457031,0.4545845031738281,0
0.6923395156860351,0.4761285781860352,0
0.7191535949707031,0.4567153930664062,0
0.7013597488403320,0.4657533645629883,0
0.7068374633789062,0.4581962585449219,0
0.6930301666259765,0.4617513656616211,0
0.6930301666259765,0.4689886093139648,0
0.7170782089233398,0.4656120300292969,0
0.6983196258544921,0.4765245437622070,0
0.7130355834960938,0.4749435424804687,0
0.6942226409912109,0.4789621353149414,0
0.7008522033691406,0.4694103240966797,0
0.6861814498901367,0.4817447662353516,0
0.7104549407958984,0.4773748397827148,0
0.6804719924926758,0.4987844467163086,0
0.7073673248291016,0.4699956893920898,0
0.6893629074096680,0.4734621047973633,0
0.6893629074096680,0.4861244201660156,0
0.6824386596679687,0.4790187835693359,0
0.6824386596679687,0.4866044998168945,0
0.7075263977050781,0.4812572479248047,0
0.6897994995117187,0.4896869659423828,0
0.7052759170532227,0.4896869659423828,0
0.6876382827758789,0.4756347656250000,0
0.6876382827758789,0.4884584426879883,0
0.6954614639282226,0.4769565582275390,0
0.6915149688720703,0.4888383865356445,0
0.7066091537475586,0.4827827453613281,0
0.6891403198242188,0.4910276412963867,0
0.7046121597290039,0.4737453460693359,0
0.6873922348022461,0.4867595672607422,0
0.6937179565429688,0.4987489700317382,0
0.6950111389160156,0.4779413223266601,0
0.6909330368041992,0.4900308609008789,0
0.7061737060546874,0.4858440399169922,0
0.6883655548095703,0.4981441497802734,0
0.6864887237548828,0.4882015228271484,0
0.6861276626586914,0.4783590316772461,0
0.6938346862792969,0.5001085281372070,0
0.6795238494873047,0.4911214828491210,0
0.6894744873046875,0.4849296569824219,0
0.6747453689575195,0.5062185287475586,0
0.6747453689575195,0.4998762130737304,0
0.6847566604614258,0.4899673461914062,0
0.6779388427734375,0.4929216384887695,0
0.6879987716674805,0.5015516281127930,0
0.7007738113403320,0.4872711181640625,0
0.6834091186523438,0.5168712615966796,0
0.6896232604980469,0.4853942871093750,0
0.6896232604980469,0.5034347534179687,0
0.6766942977905274,0.4943452835083008,0
0.6867479324340821,0.4947875976562500,0
0.6721315383911133,0.5030033111572265,0
0.6841592788696289,0.4906660079956054,0
0.6822669982910156,0.4884550094604492,0
0.6822669982910156,0.4929124832153320,0
0.6884931564331055,0.5047800064086914,0
0.6897171020507812,0.5120767593383789,0
0.6855823516845703,0.4892669677734375,0
0.6855823516845703,0.4960332870483398,0
0.6710054397583007,0.5042289733886719,0
0.6831356048583984,0.4982940673828125,0
0.6813405990600586,0.5193511962890625,0
0.6813405990600586,0.4940322875976562,0
0.6875919342041016,0.5059593200683593,0
0.6889446258544921,0.4851316452026367,0
0.6847812652587890,0.4971817016601562,0
0.6999658584594727,0.4971817016601562,0
0.6823133468627930,0.5052274703979492,0
0.6823133468627930,0.4992605209350586,0
0.6806024551391602,0.4950422286987304,0
0.6803403854370117,0.4950422286987304,0
0.6883775711059570,0.5067953109741211,0
0.6883775711059570,0.4858978271484375,0
0.6847560882568359,0.4977499008178711,0
0.7002336502075195,0.4912679672241211,0
0.6838571548461914,0.4913131713867187,0
0.6838571548461914,0.4984445571899414,0
0.6840105056762695,0.4923019409179688,0
0.6848573684692383,0.4936878204345703,0
0.6952686309814453,0.4784906387329101,0
0.6826263427734375,0.4784906387329101,0
0.6944835662841796,0.4848621368408203,0
0.7114345550537109,0.4750539779663085,0
0.6976793289184570,0.4751432418823242,0
0.7150062561035156,0.4751432418823242,0
0.6992322921752929,0.4642284393310547,0
0.7002777099609375,0.4645952224731445,0
0.7096223831176758,0.4501167297363281,0
0.6959197998046874,0.4527688980102539,0
0.7215980529785156,0.4608524322509766,0
0.7215980529785156,0.4545621871948242,0
0.7040908813476562,0.4630554199218750,0
0.7195055007934570,0.4462915420532226,0
0.7014776229858398,0.4504657745361328,0
0.7014776229858398,0.4629238128662109,0
0.7086290359497071,0.4528564453125000,0
0.6940532684326172,0.4652767181396484,0
0.7184148788452148,0.4616466522216797,0
0.6882905960083008,0.4616466522216797,0
0.6999292373657227,0.4720842361450195,0
0.7149261474609375,0.4647211074829101,0
0.6961744308471679,0.4742483139038086,0
0.7022186279296875,0.4742483139038086,0
0.6880743026733398,0.4652160644531250,0
0.6880743026733398,0.4778589248657226,0
0.7120256423950195,0.4744949340820312,0
0.6817714691162109,0.4895931243896484,0
0.7083080291748046,0.4766120910644531,0
0.6905050277709961,0.5073926925659179,0
0.6961303710937500,0.4945775985717773,0
0.6826154708862304,0.4860265731811523,0
0.6924053192138672,0.4860265731811523,0
0.7073661804199218,0.4808876037597656,0
0.6894224166870117,0.4896286010742187,0
0.7047826766967773,0.4896286010742187,0
0.6872875213623046,0.4858028411865234,0
0.6872875213623046,0.4858028411865234,0
0.6934936523437499,0.4977647781372070,0
0.6934936523437499,0.4977647781372070,0
0.6805995941162110,0.4889150619506836,0
0.6805995941162110,0.4889150619506836,0
0.7057743072509766,0.4833292007446289,0
0.7057743072509766,0.4833292007446289,0
0.6882814407348633,0.4915306091308593,0
0.6882814407348633,0.4915306091308593,0
0.6865207672119140,0.4874748229980468,0
0.6865207672119140,0.4874748229980468,0
0.6929460525512695,0.4992736816406250,0
0.6929460525512695,0.4992736816406250,0
0.6799839019775390,0.4900377273559570,0
0.6799839019775390,0.4900377273559570,0
0.7052364349365234,0.4845537185668945,0
0.7052364349365234,0.4845537185668945,0
0.6876897811889648,0.4927488327026367,0
0.6876897811889648,0.4927488327026367,0
0.6856767654418945,0.4886009216308593,0
0.6856767654418945,0.4886009216308593,0
0.6919321060180664,0.5004787445068359,0
0.6919321060180664,0.5004787445068359,0
0.6790008544921875,0.4913892745971680,0
0.6790008544921875,0.4913892745971680,0
0.7040479660034179,0.4859384536743164,0
0.7040479660034179,0.4859384536743164,0
0.6863576889038085,0.4943281173706054,0
0.6863576889038085,0.4943281173706054,0
0.6843269348144531,0.4902294158935547,0
0.6843269348144531,0.4902294158935547,0
0.6905708312988281,0.5020677566528320,0
0.6905708312988281,0.5020677566528320,0
0.6775629043579101,0.4931447982788086,0
0.6775629043579101,0.4931447982788086,0
0.7025516510009765,0.4877243041992188,0
0.7025516510009765,0.4877243041992188,0
0.6848133087158202,0.4961528778076172,0
0.6848133087158202,0.4961528778076172,0
0.6828094482421875,0.4920078277587890,0
0.6828094482421875,0.4920078277587890,0
0.6890001296997070,0.5038650512695312,0
0.6890001296997070,0.5038650512695312,0
0.6760259628295898,0.4947658538818359,0
0.6760259628295898,0.4947658538818359,0
0.7009780883789062,0.4893053054809570,0
0.7009780883789062,0.4893053054809570,0
0.6834033966064453,0.4975049972534180,0
0.6834033966064453,0.4975049972534180,0
0.6813560485839844,0.4933982849121094,0
0.6813560485839844,0.4933982849121094,0
0.6876514434814452,0.5052612304687499,0
0.6876514434814452,0.5052612304687499,0
0.6747951507568359,0.4960269927978516,0
0.6747951507568359,0.4960269927978516,0
0.6999372482299805,0.4905075073242187,0
0.6999372482299805,0.4905075073242187,0
0.6823436737060546,0.4986700057983398,0
0.6823436737060546,0.4986700057983398,0
0.6803998947143555,0.4945816040039062,0
0.6803998947143555,0.4945816040039062,0
0.6868125915527343,0.5063117980957031,0
0.6868125915527343,0.5063117980957031,0
0.6739866256713867,0.4971633911132812,0
0.6739866256713867,0.4971633911132812,0
0.6990383148193359,0.4915374755859375,0
0.6990383148193359,0.4915374755859375,0
0.6813858032226562,0.4998081207275391,0
0.6813858032226562,0.4998081207275391,0
0.6793899536132812,0.4956127166748047,0
0.6793899536132812,0.4956127166748047,0
0.6858152389526367,0.5072536468505859,0
0.6858152389526367,0.5072536468505859,0
0.6729846954345703,0.4981035232543945,0
0.6729846954345703,0.4981035232543945,0
0.6981353759765625,0.4925668716430664,0
0.6683755874633789,0.4925668716430664,0
0.6961469650268555,0.5007013320922852,0
0.6961469650268555,0.4922092437744141,0
0.6961469650268555,0.4922092437744141,0
0.6786466598510742,0.4862428665161133,0
0.6786466598510742,0.4990619659423828,0
0.6987487792968750,0.4926584243774414,0
0.6825588226318359,0.4996810913085937,0
0.6939691543579102,0.4794593811035156,0
0.6931428909301758,0.4763900756835937,0
0.6968788146972656,0.4668451309204101,0
0.7188806533813477,0.4551664352416992,0
0.7045715332031249,0.4772197723388671,0
0.7148191452026367,0.4721248626708984,0
0.6989936828613281,0.4701152801513672,0
0.6873327255249023,0.4873889923095703,0
0.6935995101928710,0.4965642929077148,0
0.6805921554565429,0.4853651046752929,0
0.6872995376586913,0.4916164398193359,0
0.6849105834960937,0.4905292510986328,0
0.6924819946289062,0.4843740463256836,0
0.7035964965820313,0.4934869766235351,0
0.6841987609863281,0.4919631958007812,0
0.6907665252685546,0.4919425964355468,0
0.6733022689819336,0.5003459930419921,0
0.6855594635009765,0.4905189514160156,0
0.6909524917602539,0.4815834045410156,0
0.6774101257324219,0.4879114151000976,0
0.6845037460327148,0.4874101638793945,0
0.6887569427490234,0.4851779937744141,0
0.6761884689331055,0.4947858810424804,0
0.6831104278564453,0.4912799835205078,0
0.6989833831787109,0.4962364196777344,0
0.6748243331909179,0.4962850570678711,0
0.6844625473022461,0.5047462463378906,0
0.6796463012695312,0.4949878692626953,0
0.6798563003540039,0.4859361648559570,0
0.6985193252563476,0.4921131134033203,0
0.6786769866943360,0.4959989547729492,0
0.6826789855957031,0.4920455932617187,0
0.6776641845703125,0.5076301574707031,0
0.6855726242065430,0.5018434524536133,0
0.6772556304931641,0.5132349014282226,0
0.6811534881591796,0.5012815475463867,0
0.6981176376342774,0.4921680450439453,0
0.7067070007324219,0.4924884796142578,0
0.6925987243652344,0.4756072998046875,0
0.6925987243652344,0.4794101715087891,0
0.7039535522460937,0.4764026641845703,0
0.6988803863525390,0.4711589813232422,0
0.7150423049926757,0.4718393325805664,0
0.6960113525390624,0.4631755828857422,0
0.7025465011596680,0.4704917907714843,0
0.6978784561157226,0.4769811630249023,0
0.7093299865722656,0.5054574966430664,0
0.6898698806762695,0.4734455108642578,0
0.6832460403442383,0.4854938507080078,0
0.6922966003417969,0.4898254394531250,0
0.6853740692138671,0.4973430633544922,0
0.6796823501586914,0.4840810775756836,0
0.6889509201049805,0.4988136291503906,0
0.6859914779663085,0.4767580032348633,0
0.6836042404174805,0.4920999526977539,0
0.6909845352172851,0.4896108627319335,0
0.6725051879882812,0.4806295394897461,0
0.6829467773437500,0.5009496688842773,0
0.6903190612792969,0.4819038391113281,0
0.7016567230224610,0.4882164001464844,0
0.7010633468627929,0.4924306869506836,0
0.6895860671997071,0.4830797195434570,0
0.6771257400512695,0.4945713043212890,0
0.6863119125366210,0.4972749710083008,0
0.6999692916870117,0.5032928466796874,0
0.6884056091308594,0.4845445632934570,0
0.6759149551391601,0.4960475921630859,0
0.6988134384155273,0.4898351669311523,0
0.6791393280029296,0.4951108932495117,0
0.6865345001220703,0.4974466323852539,0
0.6839172363281250,0.4982425689697265,0
0.6983093261718750,0.5054975509643554,0
0.6811683654785156,0.4998996734619141,0
0.6977468490600586,0.4998996734619141,0
0.6789642333984375,0.4983953475952148,0
0.6789642333984375,0.4983953475952148,0
0.6739013671874999,0.4921285629272460,0
0.6829593658447265,0.4993972778320312,0
0.6973222732543946,0.4961471557617188,0
0.6802328109741210,0.5009782791137695,0
0.6802328109741210,0.4844558715820312,0
0.6846570968627930,0.4993864059448242,0
0.6846570968627930,0.5065567016601562,0
0.6853179931640625,0.5165931701660156,0
0.6853179931640625,0.5004283905029296,0
0.6965114593505859,0.4971822738647461,0
0.6965114593505859,0.4946256637573242,0
0.6961864471435547,0.4929822921752929,0
0.6961864471435547,0.4983758926391602,0
0.6762531280517577,0.5073818206787110,0
0.6845460891723633,0.5174869537353516,0
0.6845460891723633,0.4887800216674805,0
0.6814813613891602,0.4939006805419922,0
0.6958557128906250,0.4954524993896484,0
0.6775051116943359,0.5072645187377930,0
0.6743516921997070,0.4996610641479492,0
0.6993467330932617,0.4928140640258789,0
0.6993467330932617,0.4975673675537109,0
0.7025287628173827,0.4783927917480468,0
0.7025287628173827,0.4870479583740234,0
0.6939142227172851,0.4949151992797851,0
0.6958225250244140,0.5013748168945312,0
0.6958225250244140,0.4741115570068359,0
0.7108051300048828,0.4813928604125977,0
0.7108051300048828,0.4732315063476562,0
0.6821960449218750,0.4732315063476562,0
0.6957120895385742,0.4765560150146484,0
0.6935777664184570,0.4709009170532226,0
0.6951295852661132,0.4593858718872070,0
0.7019439697265625,0.4786680221557617,0
0.7024463653564453,0.4896915435791016,0
0.6905794143676758,0.4728939056396484,0
0.7129777908325196,0.4694726943969726,0
0.6829278945922851,0.4896062850952148,0
0.7115581512451171,0.4639097213745117,0
0.6906057357788086,0.4804149627685547,0
0.6974018096923827,0.4705444335937500,0
0.6974018096923827,0.4880790710449219,0
0.6935543060302735,0.4782022476196289,0
0.6935543060302735,0.4851928710937500,0
0.6773345947265624,0.4933399200439453,0
0.6896627426147460,0.4821527481079101,0
0.6896627426147460,0.4883377075195312,0
0.6865013122558593,0.4771436691284179,0
0.6928081512451172,0.4948865890502929,0
0.6895660400390625,0.4895570755004883,0
0.6895660400390625,0.4909217834472656,0
0.7034099578857421,0.4909217834472656,0
0.7029018402099609,0.4840581893920898,0
0.7029018402099609,0.5139621734619141,0
0.6819992065429688,0.4902339935302734,0
0.6897434234619141,0.4984004974365234,0
0.6900672912597656,0.5099561691284179,0
0.6871747970581055,0.4937742233276367,0
0.7011783599853515,0.4937742233276367,0
0.6715169906616211,0.5004873275756836,0
0.6842290878295898,0.4885517120361328,0
0.6805841445922851,0.4921537399291992,0
0.6821439743041992,0.4921537399291992,0
0.6892129898071289,0.4824056625366211,0
0.6779222488403320,0.4850418090820312,0
0.6866111755371094,0.4951097488403320,0
0.7006816864013672,0.4893362045288085,0
0.7006816864013672,0.4963033676147461,0
0.6818109512329101,0.4947641372680664,0
0.7001420974731445,0.4904388427734375,0
0.7001420974731445,0.4881437301635742,0
0.6793235778808594,0.5018342971801758,0
0.6767927169799804,0.4963130950927734,0
0.6990348815917968,0.4989343643188476,0
0.6797235488891601,0.4850297927856445,0
0.6865911483764648,0.4989669799804687,0
0.6809017181396484,0.5201705932617188,0
0.6786741256713867,0.5041191101074218,0
0.6967449188232422,0.4941947937011719,0
0.6972982406616210,0.4915534973144531,0
0.6777059555053710,0.4997703552246093,0
0.6958923339843750,0.4986642837524414,0
0.6792200088500976,0.5218929290771485,0
0.6838039398193360,0.4891845703125000,0
0.6730916976928710,0.5005908966064453,0
0.6654888153076172,0.5027887344360351,0
0.6762434005737304,0.5012603759765625,0
0.6729286193847656,0.4964950561523437,0
0.6794963836669922,0.5026685714721679,0
0.6872760772705078,0.4955434799194336,0
0.6753868103027344,0.5003334045410156,0
0.6879570007324218,0.5014154434204101,0
0.6910732269287109,0.4729339599609375,0
