REDsignal,IRsignal,synced
0.4555709838867187,0.3183917999267578,0
0.4570598602294922,0.3183917999267578,0
0.4574438095092773,0.3167375564575195,0
0.4584131240844727,0.3167375564575195,0
0.4573207855224609,0.3174127578735351,0
0.4568487167358398,0.3174127578735351,0
0.4559177398681640,0.3168153762817383,0
0.4565746307373046,0.3168153762817383,0
0.4558673858642578,0.3157917022705078,0
0.4548128128051758,0.3157917022705078,0
0.4541313171386718,0.3152109146118164,0
0.4518236160278320,0.3152109146118164,0
0.4527797698974609,0.3115379333496094,0
0.4525606155395507,0.3115379333496094,0
0.4504354476928711,0.3098922729492187,0
0.4487291336059570,0.3098922729492187,0
0.4468317031860352,0.3068521499633789,0
0.4463304519653320,0.3068521499633789,0
0.4447402954101562,0.3037450790405273,0
0.4431610107421875,0.3037450790405273,0
0.4420881271362305,0.3024026870727539,0
0.4398611068725586,0.3024026870727539,0
0.4410947799682617,0.2993419647216797,0
0.4416784286499023,0.2993419647216797,0
0.4405563354492187,0.2997058868408203,0
0.4402032852172851,0.2997058868408203,0
0.4397415161132812,0.2998455047607422,0
0.4410209655761719,0.2998455047607422,0
0.4410535812377930,0.3004062652587891,0
0.4411560058593750,0.3004062652587891,0
0.4415119171142578,0.3021263122558593,0
0.4406421661376953,0.3021263122558593,0
0.4427530288696289,0.3012187957763672,0
0.4440862655639649,0.3012187957763672,0
0.4433309555053711,0.3026704788208008,0
0.4431552886962891,0.3026704788208008,0
0.4428148269653320,0.3029176712036133,0
0.4439723968505859,0.3029176712036133,0
0.4437755584716797,0.3030612945556641,0
0.4436965942382812,0.3030612945556641,0
0.4437343597412109,0.3043069839477539,0
0.4425230026245117,0.3043069839477539,0
0.4445325851440430,0.3029777526855469,0
0.4457748413085937,0.3029777526855469,0
0.4448884963989257,0.3041788101196289,0
0.4448490142822266,0.3041788101196289,0
0.4444507598876953,0.3046451568603515,0
0.4457851409912109,0.3046451568603515,0
0.4456821441650390,0.3050399780273437,0
0.4457553863525390,0.3050399780273437,0
0.4459470748901367,0.3066129684448242,0
0.4448822021484375,0.3066129684448242,0
0.4470405578613281,0.3057901382446289,0
0.4485214233398437,0.3057901382446289,0
0.4478605270385742,0.3074249267578125,0
0.4478445053100586,0.3074249267578125,0
0.4475492477416992,0.3081378936767578,0
0.4489145278930664,0.3081378936767578,0
0.4489786148071289,0.3086557388305664,0
0.4491554260253906,0.3086557388305664,0
0.4492452621459961,0.3103076934814453,0
0.4481540679931640,0.3103076934814453,0
0.4502180099487305,0.3092222213745117,0
0.4516817092895508,0.3092222213745117,0
0.4508113861083984,0.3106407165527343,0
0.4508228302001953,0.3106407165527343,0
0.4503232955932617,0.3110813140869140,0
0.4516931533813476,0.3110813140869140,0
0.4515295028686523,0.3112564086914062,0
0.4516250610351562,0.3112564086914062,0
0.4514625549316406,0.3126005172729492,0
0.4502225875854492,0.3126005172729492,0
0.4521509170532226,0.3109674453735352,0
0.4532701492309570,0.3109674453735352,0
0.4521926879882812,0.3118824005126953,0
0.4518213272094727,0.3118824005126953,0
0.4511198043823242,0.3117101669311523,0
0.4521331787109375,0.3117101669311523,0
0.4518110275268554,0.3114910125732422,0
0.4516164779663085,0.3114910125732422,0
0.4514671325683594,0.3125192642211914,0
0.4499937057495117,0.3125192642211914,0
0.4518299102783203,0.3106922149658203,0
0.4529245376586914,0.3106922149658203,0
0.4518167495727539,0.3116300582885742,0
0.4514757156372070,0.3116300582885742,0
0.4508691787719726,0.3115430831909179,0
0.4520748138427734,0.3115430831909179,0
0.4517658233642578,0.3115602493286133,0
0.4518081665039062,0.3115602493286133,0
0.4515203475952148,0.3128911972045899,0
0.4519363403320312,0.3128911972045899,0
0.4535842895507812,0.3113508224487305,0
0.4520999908447265,0.3113508224487305,0
0.4526384353637695,0.3124237060546875,0
0.4523832321166992,0.3124237060546875,0
0.4517927169799805,0.3125312805175781,0
0.4530509948730468,0.3125312805175781,0
0.4521211624145507,0.3137672424316406,0
0.4523294448852539,0.3125421524047852,0
0.4529863357543945,0.3131486892700195,0
0.4534051895141601,0.3131486892700195,0
0.4531402587890625,0.3136762619018554,0
0.4522619247436523,0.3136762619018554,0
0.4532106399536133,0.3139680862426757,0
0.4540014266967773,0.3139680862426757,0
0.4545484542846679,0.3139194488525390,0
0.4533153533935547,0.3139194488525390,0
0.4535688400268554,0.3138227462768555,0
0.4553037643432617,0.3138227462768555,0
0.4541662216186523,0.3144241333007812,0
0.4547018051147461,0.3144241333007812,0
0.4543504714965820,0.3149969100952149,0
0.4535327911376953,0.3149969100952149,0
0.4544649124145508,0.3153791427612305,0
0.4553266525268554,0.3153791427612305,0
0.4560270309448242,0.3152795791625976,0
0.4545965194702148,0.3152795791625976,0
0.4548614501953125,0.3151760101318359,0
0.4566152572631836,0.3151760101318359,0
0.4554943084716797,0.3156972885131836,0
0.4559034347534179,0.3156972885131836,0
0.4556739807128906,0.3161745071411133,0
0.4547006607055664,0.3161745071411133,0
0.4556344985961914,0.3165212631225586,0
0.4563503265380859,0.3165212631225586,0
0.4570735931396484,0.3163049697875976,0
0.4555612564086914,0.3163049697875976,0
0.4557409286499023,0.3160509109497070,0
0.4574443817138671,0.3160509109497070,0
0.4562662124633789,0.3166391372680664,0
0.4567033767700195,0.3166391372680664,0
0.4563766479492187,0.3170671463012695,0
0.4555057525634765,0.3170671463012695,0
0.4563308715820312,0.3173978805541992,0
0.4571165084838867,0.3173978805541992,0
0.4577625274658203,0.3171890258789062,0
0.4563978195190430,0.3171890258789062,0
0.4566392898559570,0.3170391082763672,0
0.4555578231811523,0.3184072494506836,0
0.4571199417114258,0.3184679031372070,0
0.4571113586425781,0.3178882598876953,0
0.4570398330688477,0.3182310104370117,0
0.4577247619628906,0.3182310104370117,0
0.4584697723388672,0.3179849624633789,0
0.4570169448852539,0.3179849624633789,0
0.4572286605834961,0.3177068710327148,0
0.4588514328002929,0.3177068710327148,0
0.4577648162841796,0.3183242797851563,0
0.4581750869750976,0.3183242797851563,0
0.4579147338867187,0.3187585830688476,0
0.4569654464721680,0.3187585830688476,0
0.4578334808349609,0.3190166473388672,0
0.4584783554077148,0.3190166473388672,0
0.4593257904052734,0.3189016342163086,0
0.4585000991821289,0.3189016342163086,0
0.4580961227416992,0.3186738967895508,0
0.4580617904663086,0.3186738967895508,0
0.4585298538208007,0.3191368103027344,0
0.4588880538940430,0.3191368103027344,0
0.4586071014404297,0.3194578170776367,0
0.4576469421386719,0.3194578170776367,0
0.4590316772460937,0.3198257446289062,0
0.4581047058105469,0.3198257446289062,0
0.4581047058105469,0.3195184707641601,0
0.4581693649291992,0.3195184707641601,0
0.4586128234863281,0.3193834304809570,0
0.4601480484008789,0.3193834304809570,0
0.4591798782348633,0.3198617935180664,0
0.4595220565795898,0.3198617935180664,0
0.4592142105102539,0.3202823638916015,0
0.4583816528320312,0.3202823638916015,0
0.4599105834960937,0.3206766128540039,0
0.4589498519897461,0.3220121383666992,0
0.4589498519897461,0.3203458786010742,0
0.4598693847656250,0.3204082489013672,0
0.4595357894897460,0.3202537536621093,0
0.4611288070678711,0.3202537536621093,0
0.4600187301635742,0.3207881927490234,0
0.4603992462158203,0.3207881927490234,0
0.4601715087890625,0.3211692810058593,0
0.4592462539672851,0.3211692810058593,0
0.4601217269897461,0.3215744018554688,0
0.4606836318969726,0.3215744018554688,0
0.4614967346191406,0.3213129043579102,0
0.4607545852661132,0.3213129043579102,0
0.4602773666381836,0.3211647033691406,0
0.4605840682983398,0.3211647033691406,0
0.4608810424804687,0.3216693878173828,0
0.4612146377563476,0.3216693878173828,0
0.4608753204345703,0.3220687866210937,0
0.4599855422973633,0.3220687866210937,0
0.4612478256225586,0.3222135543823242,0
0.4602962493896484,0.3222135543823242,0
0.4619012832641601,0.3215377807617187,0
0.4600713729858398,0.3215377807617187,0
0.4599277496337890,0.3204866409301758,0
0.4608427047729492,0.3204866409301758,0
0.4592651367187500,0.3196535110473633,0
0.4585870742797851,0.3196535110473633,0
0.4575330734252929,0.3180690765380859,0
0.4553781509399414,0.3180690765380859,0
0.4552104949951172,0.3159381866455078,0
0.4544197082519531,0.3159381866455078,0
0.4538354873657227,0.3126050949096680,0
0.4514196395874023,0.3126050949096680,0
0.4492492675781250,0.3086431503295898,0
0.4488681793212890,0.3086431503295898,0
0.4463293075561524,0.3055675506591797,0
0.4450630187988281,0.3055675506591797,0
0.4436691284179687,0.3032449722290039,0
0.4417591094970703,0.3032449722290039,0
0.4420360565185547,0.3020576477050781,0
0.4423381805419922,0.3020576477050781,0
0.4429098129272461,0.3016530990600586,0
0.4416927337646484,0.3016530990600586,0
0.4423049926757812,0.3020484924316406,0
0.4443563461303711,0.3020484924316406,0
0.4437034606933594,0.3036272048950195,0
0.4447002410888672,0.3036272048950195,0
0.4448804855346680,0.3050989151000976,0
0.4445016860961914,0.3050989151000976,0
0.4457679748535156,0.3063360214233398,0
0.4467819213867187,0.3063360214233398,0
0.4478382110595703,0.3067634582519531,0
0.4465982437133789,0.3067634582519531,0
0.4471475601196289,0.3070529937744140,0
0.4489643096923828,0.3070529937744140,0
0.4479972839355469,0.3079319000244141,0
0.4485671997070312,0.3079319000244141,0
0.4484493255615234,0.3086763381958008,0
0.4476459503173828,0.3086763381958008,0
0.4486061096191406,0.3092411041259766,0
0.4492778778076172,0.3092411041259766,0
0.4500835418701172,0.3090929031372070,0
0.4486925125122070,0.3090929031372070,0
0.4490398406982422,0.3090482711791992,0
0.4507638931274414,0.3090482711791992,0
0.4497390747070312,0.3098007202148437,0
0.4502723693847656,0.3098007202148437,0
0.4502334594726562,0.3106910705566406,0
0.4497247695922851,0.3106910705566406,0
0.4508760452270508,0.3116947174072265,0
0.4519403457641601,0.3116947174072265,0
0.4530315399169922,0.3123716354370117,0
0.4518659591674805,0.3123716354370117,0
0.4525749206542968,0.3129249572753906,0
0.4545272827148437,0.3129249572753906,0
0.4537090301513672,0.3140064239501953,0
0.4543533325195312,0.3140064239501953,0
0.4542457580566406,0.3148750305175781,0
0.4535814285278320,0.3148750305175781,0
0.4544837951660156,0.3155582427978516,0
0.4552150726318359,0.3155582427978516,0
0.4561540603637695,0.3154220581054688,0
0.4547973632812500,0.3154220581054688,0
0.4551057815551758,0.3154558181762695,0
0.4567228317260742,0.3154558181762695,0
0.4555990219116210,0.3159805297851562,0
0.4559841156005859,0.3159805297851562,0
0.4557106018066406,0.3163415908813477,0
0.4547716140747070,0.3163415908813477,0
0.4555028915405273,0.3165733337402344,0
0.4560138702392578,0.3165733337402344,0
0.4567256927490234,0.3160640716552734,0
0.4551898956298828,0.3160640716552734,0
0.4554061889648438,0.3157590866088867,0
0.4568275451660156,0.3157590866088867,0
0.4556310653686523,0.3160669326782227,0
0.4559738159179687,0.3160669326782227,0
0.4556121826171875,0.3162803649902344,0
0.4546932220458984,0.3162803649902344,0
0.4562301635742188,0.3160686492919922,0
0.4567382812500000,0.3161258697509766,0
0.4559125900268555,0.3162837982177734,0
0.4556179046630859,0.3159919738769531,0
0.4544082641601562,0.3172388076782227,0
0.4562576293945312,0.3155891418457031,0
0.4560281753540039,0.3165218353271484,0
0.4554748535156250,0.3181898117065430,0
0.4554748535156250,0.3165727615356445,0
0.4564029693603515,0.3166265487670898,0
0.4560813903808594,0.3166265487670898,0
0.4561935424804687,0.3178825378417969,0
0.4549478530883789,0.3178825378417969,0
0.4569580078125000,0.3163679122924805,0
0.4580326080322266,0.3163679122924805,0
0.4571502685546875,0.3174087524414063,0
0.4569013595581055,0.3174087524414063,0
0.4563137054443359,0.3175397872924804,0
0.4576526641845703,0.3175397872924804,0
0.4573173522949219,0.3177165985107422,0
0.4573551177978515,0.3177165985107422,0
0.4573093414306640,0.3191539764404297,0
0.4560728073120117,0.3191539764404297,0
0.4581024169921875,0.3176599502563476,0
0.4591026306152344,0.3176599502563476,0
0.4583604812622070,0.3186990737915039,0
0.4580606460571289,0.3186990737915039,0
0.4575485229492187,0.3188873291015625,0
0.4588256835937500,0.3188873291015625,0
0.4586288452148437,0.3189674377441406,0
0.4584892272949219,0.3189674377441406,0
0.4583879470825195,0.3203430175781250,0
0.4572269439697265,0.3203430175781250,0
0.4592514038085938,0.3189050674438477,0
0.4603443145751953,0.3189050674438477,0
0.4595809936523437,0.3199607849121094,0
0.4592908859252929,0.3199607849121094,0
0.4587266921997070,0.3201192855834961,0
0.4600896835327148,0.3201192855834961,0
0.4598470687866211,0.3202205657958984,0
0.4597160339355468,0.3202205657958984,0
0.4596851348876953,0.3215446472167969,0
0.4584835052490234,0.3215446472167969,0
0.4604415893554688,0.3200958251953125,0
0.4615247726440430,0.3200958251953125,0
0.4606973648071289,0.3211412429809570,0
0.4603923797607422,0.3211412429809570,0
0.4598796844482422,0.3212207794189453,0
0.4611248016357422,0.3212207794189453,0
0.4607671737670898,0.3212797164916992,0
0.4606990814208984,0.3212797164916992,0
0.4605131149291992,0.3225362777709961,0
0.4592828750610352,0.3225362777709961,0
0.4612878799438476,0.3209461212158203,0
0.4622400283813476,0.3209461212158203,0
0.4614320755004883,0.3219217300415039,0
0.4611356735229492,0.3219217300415039,0
0.4605583190917968,0.3219675064086914,0
0.4618045806884765,0.3219675064086914,0
0.4613754272460937,0.3219337463378906,0
0.4612386703491211,0.3219337463378906,0
0.4611534118652343,0.3232217788696289,0
0.4598991394042968,0.3232217788696289,0
0.4619012832641601,0.3216711044311523,0
0.4628625869750976,0.3216711044311523,0
0.4620769500732422,0.3226186752319336,0
0.4617582321166992,0.3226186752319336,0
0.4612215042114258,0.3226902008056641,0
0.4624637603759765,0.3226902008056641,0
0.4621948242187500,0.3226816177368164,0
0.4620843887329101,0.3226816177368164,0
0.4619871139526367,0.3239839553833008,0
0.4607265472412109,0.3239839553833008,0
0.4627281188964844,0.3223955154418945,0
0.4636871337890625,0.3223955154418945,0
0.4628608703613281,0.3233499526977539,0
0.4625547409057617,0.3233499526977539,0
0.4619350433349609,0.3233144760131836,0
0.4631383895874023,0.3233144760131836,0
0.4627441406250000,0.3232669830322266,0
0.4626583099365234,0.3232669830322266,0
0.4624420166015625,0.3245790481567383,0
0.4611906051635742,0.3245790481567383,0
0.4631727218627930,0.3229557037353515,0
0.4641117095947265,0.3229557037353515,0
0.4633483886718750,0.3239341735839844,0
0.4630044937133789,0.3239341735839844,0
0.4623836517333984,0.3238981246948242,0
0.4636453628540039,0.3238981246948242,0
0.4632585525512695,0.3238672256469726,0
0.4631813049316406,0.3238672256469726,0
0.4630405426025390,0.3251764297485352,0
0.4618103027343750,0.3251764297485352,0
0.4637535095214844,0.3236040115356445,0
0.4646747589111328,0.3236040115356445,0
0.4639532089233398,0.3245956420898438,0
0.4636659622192383,0.3245956420898438,0
0.4631452560424805,0.3246854782104492,0
0.4644006729125976,0.3246854782104492,0
0.4640253067016601,0.3246728897094727,0
0.4639337539672851,0.3246728897094727,0
0.4637317657470703,0.3260158538818359,0
0.4625839233398437,0.3260158538818359,0
0.4645151138305664,0.3244852066040039,0
0.4653991699218750,0.3244852066040039,0
0.4647480010986328,0.3253681182861328,0
0.4644041061401367,0.3253681182861328,0
0.4637540817260742,0.3252468109130859,0
0.4648962020874023,0.3252468109130859,0
0.4644115447998047,0.3250041961669922,0
0.4641254425048828,0.3250041961669922,0
0.4636459350585938,0.3256908416748047,0
0.4619579315185547,0.3256908416748047,0
0.4634857177734375,0.3231536865234375,0
0.4636493682861328,0.3231536865234375,0
0.4622812271118164,0.3225339889526367,0
0.4609743118286133,0.3225339889526367,0
0.4596055984497070,0.3205181121826172,0
0.4595598220825195,0.3205181121826172,0
0.4582168579101562,0.3181577682495117,0
0.4567737579345703,0.3181577682495117,0
0.4553014755249023,0.3164937973022461,0
0.4523923873901367,0.3164937973022461,0
0.4529468536376953,0.3116815567016601,0
0.4522630691528320,0.3116815567016601,0
0.4504491806030273,0.3097412109375000,0
0.4487852096557617,0.3097412109375000,0
0.4475790023803711,0.3077476501464844,0
0.4481122970581055,0.3077476501464844,0
0.4474628448486328,0.3068601608276367,0
0.4472568511962891,0.3068601608276367,0
0.4471263885498047,0.3082574844360351,0
0.4476928710937500,0.3076189041137695,0
0.4485116958618164,0.3088371276855469,0
0.4494626998901367,0.3080320358276367,0
0.4494386672973633,0.3118125915527344,0
0.4511432647705078,0.3102699279785156,0
0.4514476776123046,0.3110704421997070,0
0.4528799057006836,0.3122245788574219,0
0.4528627395629883,0.3122417449951172,0
0.4535379409790039,0.3136493682861328,0
0.4545312881469726,0.3140579223632812,0
0.4549043655395508,0.3142702102661133,0
0.4540277481079101,0.3142805099487305,0
0.4541810989379882,0.3145500183105469,0
0.4550388336181641,0.3150764465332031,0
0.4560024261474609,0.3143938064575195,0
0.4552579879760742,0.3155982971191406,0
0.4549501419067383,0.3161819458007812,0
0.4566982269287109,0.3162740707397461,0
0.4561643600463867,0.3167552947998047,0
0.4564035415649414,0.3183008193969726,0
0.4583787918090820,0.3187969207763672,0
0.4583295822143554,0.3193691253662109,0
0.4587953567504883,0.3193290710449219,0
0.4587953567504883,0.3207447052001953,0
0.4604055404663085,0.3192358016967773,0
0.4592428207397461,0.3201049804687500,0
0.4590431213378906,0.3202737808227539,0
0.4595123291015625,0.3199064254760742,0
0.4586608886718750,0.3198760986328125,0
0.4601743698120117,0.3194589614868164,0
0.4588308334350586,0.3207183837890625,0
0.4592319488525390,0.3188913345336914,0
0.4588251113891602,0.3203636169433594,0
0.4584737777709961,0.3197484970092773,0
0.4589550018310546,0.3199619293212890,0
0.4597217559814453,0.3194097518920898,0
0.4586116790771484,0.3191574096679687,0
0.4585281372070312,0.3193044662475586,0
0.4592845916748047,0.3195625305175781,0
0.4600387573242187,0.3189067840576172,0
0.4590757369995117,0.3198394775390625,0
0.4587850570678711,0.3202554702758789,0
0.4601766586303710,0.3199155807495117,0
0.4594018936157226,0.3201021194458007,0
0.4591026306152344,0.3199241638183594,0
0.4591026306152344,0.3210817337036133,0
0.4598459243774414,0.3195367813110351,0
0.4595026016235351,0.3211446762084961,0
0.4594190597534180,0.3209192276000977,0
0.4600965499877929,0.3210336685180664,0
0.4595392227172851,0.3208024978637695,0
0.4602493286132812,0.3207481384277344,0
0.4601028442382812,0.3210193634033203,0
0.4589670181274414,0.3221958160400391,0
0.4617691040039062,0.3207452774047851,0
0.4606246948242188,0.3216093063354492,0
0.4605611801147461,0.3221923828125000,0
0.4603775024414062,0.3221923828125000,0
0.4604988098144531,0.3218873977661132,0
0.4612392425537109,0.3217912673950195,0
0.4609897613525391,0.3231903076171875,0
0.4598316192626953,0.3231903076171875,0
0.4626096725463867,0.3216436386108398,0
0.4614641189575195,0.3225917816162109,0
0.4613948822021484,0.3231325149536133,0
0.4612066268920898,0.3231325149536133,0
0.4613273620605469,0.3228338241577148,0
0.4620540618896484,0.3226959228515625,0
0.4617982864379883,0.3240417480468750,0
0.4621461868286132,0.3240417480468750,0
0.4622823715209960,0.3225608825683594,0
0.4622823715209960,0.3234575271606445,0
0.4622011184692383,0.3239547729492188,0
0.4619304656982421,0.3250362396240234,0
0.4628139495849609,0.3238489151000977,0
0.4628139495849609,0.3234861373901367,0
0.4624471664428711,0.3247358322143555,0
0.4628065109252930,0.3237195968627929,0
0.4628528594970703,0.3248674392700195,0
0.4621416091918945,0.3241470336914062,0
0.4627567291259765,0.3245727539062500,0
0.4625307083129883,0.3256874084472656,0
0.4633501052856445,0.3244743347167969,0
0.4632762908935547,0.3240909576416016,0
0.4617977142333984,0.3254013061523438,0
0.4633300781250000,0.3243982315063477,0
0.4634250640869140,0.3247209548950195,0
0.4626543045043945,0.3247209548950195,0
0.4638210296630859,0.3252090454101562,0
0.4630537033081055,0.3247163772583008,0
0.4638702392578125,0.3247232437133789,0
0.4635927200317382,0.3247232437133789,0
0.4639663696289062,0.3260587692260742,0
0.4639663696289062,0.3250699996948242,0
0.4639886856079101,0.3253355026245117,0
0.4645694732666015,0.3239948272705078,0
0.4636459350585938,0.3270366668701172,0
0.4649585723876953,0.3254642486572266,0
0.4645511627197265,0.3254064559936523,0
0.4642667770385742,0.3262229919433594,0
0.4646553039550781,0.3257772445678711,0
0.4651273727416992,0.3258178710937500,0
0.4646947860717773,0.3261211395263672,0
0.4652309417724609,0.3247398376464843,0
0.4643314361572266,0.3276512145996094,0
0.4655307769775390,0.3261051177978516,0
0.4651313781738281,0.3259283065795898,0
0.4647336959838867,0.3265869140625000,0
0.4646713256835937,0.3256782531738281,0
0.4648469924926757,0.3257801055908203,0
0.4627098083496093,0.3252885818481445,0
0.4641139984130859,0.3247283935546875,0
0.4617576599121094,0.3246328353881836,0
0.4620512008666992,0.3231920242309570,0
0.4596044540405273,0.3211503982543945,0
0.4594545364379883,0.3199275970458984,0
0.4574186325073242,0.3176233291625977,0
0.4563302993774414,0.3176233291625977,0
0.4522516250610351,0.3148281097412109,0
0.4536787033081054,0.3133775711059570,0
0.4504028320312500,0.3108673095703125,0
0.4505670547485351,0.3108673095703125,0
0.4488985061645508,0.3091266632080078,0
0.4486890792846679,0.3086214065551758,0
0.4487537384033203,0.3088548660278320,0
0.4492870330810547,0.3091163635253906,0
0.4500818252563477,0.3096725463867188,0
0.4500818252563477,0.3101360321044922,0
0.4501430511474609,0.3111408233642578,0
0.4522367477416992,0.3104953765869141,0
0.4522098541259765,0.3135274887084961,0
0.4540592193603515,0.3126468658447266,0
0.4543264389038086,0.3139743804931641,0
0.4542125701904297,0.3137781143188477,0
0.4551263809204101,0.3140218734741211,0
0.4551086425781250,0.3153900146484375,0
0.4562971115112304,0.3158998489379883,0
0.4566238403320312,0.3162569046020507,0
0.4558959960937500,0.3163507461547851,0
0.4559926986694336,0.3163507461547851,0
0.4570455551147461,0.3170202255249023,0
0.4569831848144531,0.3164285659790039,0
0.4574111938476562,0.3177474975585937,0
0.4569694519042968,0.3183019638061523,0
0.4586677551269531,0.3172199249267578,0
0.4574878692626953,0.3185028076171875,0
0.4581573486328125,0.3188661575317382,0
0.4583782196044922,0.3205146789550781,0
0.4596153259277344,0.3194875717163086,0
0.4594682693481445,0.3194875717163086,0
0.4597354888916015,0.3213815689086914,0
0.4596765518188476,0.3226724624633789,0
0.4599569320678711,0.3213815689086914,0
0.4604518890380859,0.3212642669677734,0
0.4605314254760742,0.3215183258056640,0
0.4612541198730469,0.3218112945556640,0
0.4612541198730469,0.3211921691894531,0
0.4614263534545898,0.3219823837280273,0
0.4609170913696289,0.3219823837280273,0
0.4603803634643555,0.3217969894409179,0
0.4615259170532227,0.3217969894409179,0
0.4610452651977539,0.3214988708496094,0
0.4608936309814453,0.3214988708496094,0
0.4604106903076172,0.3226575851440430,0
0.4591707229614257,0.3226575851440430,0
0.4610012054443359,0.3208047866821289,0
0.4616535186767578,0.3208047866821289,0
0.4609228134155273,0.3214691162109375,0
0.4604324340820312,0.3214691162109375,0
0.4598470687866211,0.3212614059448242,0
0.4609828948974609,0.3212614059448242,0
0.4605411529541015,0.3210731506347656,0
0.4604444503784180,0.3210731506347656,0
0.4600805282592773,0.3223720550537109,0
0.4589040756225586,0.3223720550537109,0
0.4608032226562500,0.3207778930664062,0
0.4616168975830078,0.3207778930664062,0
0.4609760284423828,0.3217037200927734,0
0.4606681823730469,0.3217037200927734,0
0.4601308822631835,0.3217460632324219,0
0.4614789962768555,0.3217460632324219,0
0.4610355377197266,0.3217105865478516,0
0.4610395431518555,0.3217105865478516,0
0.4607923507690430,0.3231485366821289,0
0.4596908569335937,0.3231485366821289,0
0.4616466522216797,0.3216888427734375,0
0.4625919342041016,0.3216888427734375,0
0.4619596481323242,0.3227806091308594,0
0.4616695404052734,0.3227806091308594,0
0.4611940383911133,0.3228893280029297,0
0.4625404357910156,0.3228893280029297,0
0.4621776580810547,0.3229728698730469,0
0.4622194290161132,0.3229728698730469,0
0.4620071411132812,0.3244440078735352,0
0.4608409881591797,0.3244440078735352,0
0.4628620147705078,0.3229419708251953,0
0.4637872695922851,0.3229419708251953,0
0.4631349563598632,0.3239953994750976,0
0.4628425598144531,0.3239953994750976,0
0.4622755050659180,0.3240657806396484,0
0.4636327743530273,0.3240657806396484,0
0.4632179260253906,0.3241247177124023,0
0.4632030487060547,0.3241247177124023,0
0.4629856109619140,0.3254453659057617,0
0.4617937088012695,0.3254453659057617,0
0.4637678146362305,0.3239816665649414,0
0.4646650314331054,0.3239816665649414,0
0.4640098571777344,0.3249887466430664,0
0.4637254714965820,0.3249887466430664,0
0.4631790161132812,0.3250448226928711,0
0.4646038055419922,0.3250448226928711,0
0.4641529083251953,0.3250642776489258,0
0.4637981414794922,0.3250642776489258,0
0.4638765335083008,0.3264490127563476,0
0.4627178192138672,0.3264490127563476,0
0.4646953582763672,0.3248863220214844,0
0.4655696868896484,0.3248863220214844,0
0.4648973464965820,0.3258916854858399,0
0.4646169662475585,0.3258916854858399,0
0.4640693664550781,0.3259088516235352,0
0.4653139114379883,0.3259088516235352,0
0.4648796081542969,0.3258670806884765,0
0.4648309707641601,0.3258670806884765,0
0.4646009445190429,0.3272781372070312,0
0.4633609771728515,0.3272781372070312,0
0.4654300689697266,0.3256587982177734,0
0.4662179946899414,0.3256587982177734,0
0.4655342102050781,0.3266252517700195,0
0.4652818679809570,0.3266252517700195,0
0.4646512985229492,0.3266298294067383,0
0.4659570693969726,0.3266298294067383,0
0.4656286239624023,0.3265914916992188,0
0.4655473709106445,0.3265914916992188,0
0.4651943206787109,0.3279487609863281,0
0.4639760971069335,0.3279487609863281,0
0.4659759521484375,0.3263717651367187,0
0.4668354034423828,0.3263717651367187,0
0.4661710739135742,0.3272151947021484,0
0.4658082962036132,0.3272151947021484,0
0.4652194976806641,0.3272306442260742,0
0.4665121078491211,0.3272306442260742,0
0.4661430358886718,0.3272272109985351,0
0.4660274505615234,0.3272272109985351,0
0.4658369064331054,0.3286680221557617,0
0.4646907806396484,0.3286680221557617,0
0.4667146682739258,0.3270423889160156,0
0.4675249099731445,0.3270423889160156,0
0.4668045043945312,0.3279830932617188,0
0.4665292739868164,0.3279830932617188,0
0.4659759521484375,0.3280723571777344,0
0.4672433853149414,0.3280723571777344,0
0.4668125152587890,0.3279848098754883,0
0.4667741775512695,0.3279848098754883,0
0.4664749145507812,0.3293832778930664,0
0.4652778625488281,0.3293832778930664,0
0.4672994613647461,0.3277656555175781,0
0.4681663513183594,0.3277656555175781,0
0.4674631118774414,0.3287521362304687,0
0.4671981811523437,0.3287521362304687,0
0.4666282653808593,0.3287595748901367,0
0.4679077148437500,0.3287595748901367,0
0.4674270629882812,0.3286817550659180,0
0.4673189163208007,0.3286817550659180,0
0.4669424057006836,0.3298593521118164,0
0.4655490875244140,0.3298593521118164,0
0.4673406600952148,0.3277421951293945,0
0.4677841186523437,0.3277421951293945,0
0.4667552947998047,0.3276775360107422,0
0.4657361984252930,0.3276775360107422,0
0.4645093917846679,0.3262687683105469,0
0.4648715972900390,0.3262687683105469,0
0.4636247634887695,0.3242723464965820,0
0.4623842239379883,0.3242723464965820,0
0.4584709167480469,0.3232303619384765,0
0.4602046966552734,0.3207784652709961,0
0.4548768997192383,0.3178556442260742,0
0.4563514709472656,0.3146701812744140,0
0.4532930374145507,0.3151920318603516,0
0.4526481628417969,0.3151920318603516,0
0.4531002044677734,0.3121999740600586,0
0.4505424499511719,0.3121999740600586,0
0.4504240036010742,0.3104988098144531,0
0.4514476776123046,0.3104988098144531,0
0.4501756668090820,0.3104106903076172,0
0.4506294250488281,0.3104106903076172,0
0.4504331588745117,0.3109972000122070,0
0.4499605178833008,0.3109972000122070,0
0.4509527206420898,0.3122743606567382,0
0.4519924163818359,0.3122743606567382,0
0.4532238006591797,0.3128248214721679,0
0.4522470474243164,0.3128248214721679,0
0.4530984878540039,0.3136539459228516,0
0.4550210952758789,0.3136539459228516,0
0.4542680740356445,0.3149494171142578,0
0.4551853179931640,0.3149494171142578,0
0.4551475524902344,0.3160308837890625,0
0.4546794891357422,0.3160308837890625,0
0.4555521011352539,0.3170883178710938,0
0.4563600540161132,0.3170883178710938,0
0.4573900222778320,0.3170476913452148,0
0.4560115814208984,0.3170476913452148,0
0.4565551757812500,0.3171049118041992,0
0.4580589294433594,0.3171049118041992,0
0.4570661544799804,0.3177251815795898,0
0.4576377868652344,0.3177251815795898,0
0.4573396682739257,0.3182006835937500,0
0.4566530227661132,0.3182006835937500,0
0.4574598312377929,0.3189233779907226,0
0.4581390380859375,0.3189233779907226,0
0.4592113494873047,0.3189365386962891,0
0.4579507827758789,0.3189365386962891,0
0.4585887908935546,0.3193634033203125,0
0.4602996826171875,0.3193634033203125,0
0.4595197677612304,0.3203252792358398,0
0.4602670669555664,0.3203252792358398,0
0.4600936889648437,0.3211606979370117,0
0.4596044540405273,0.3211606979370117,0
0.4604249954223633,0.3222249984741211,0
0.4611219406127929,0.3222249984741211,0
0.4622468948364258,0.3222066879272461,0
0.4609045028686523,0.3222066879272461,0
0.4614595413208007,0.3223079681396484,0
0.4630216598510742,0.3223079681396484,0
0.4620162963867187,0.3229734420776367,0
0.4626131057739258,0.3229734420776367,0
0.4622652053833007,0.3234266281127929,0
0.4614870071411132,0.3234266281127929,0
0.4621232986450195,0.3239364624023438,0
0.4626754760742187,0.3239364624023438,0
0.4635618209838867,0.3235038757324218,0
0.4619956970214844,0.3235038757324218,0
0.4623727798461914,0.3232080459594727,0
0.4637695312500000,0.3232080459594727,0
0.4626102447509766,0.3234592437744140,0
0.4630371093750000,0.3234592437744140,0
0.4625261306762695,0.3236183166503906,0
0.4616203308105469,0.3236183166503906,0
0.4622303009033203,0.3239507675170898,0
0.4626194000244140,0.3239507675170898,0
0.4635103225708008,0.3233259201049805,0
0.4618389129638671,0.3233259201049805,0
0.4622074127197265,0.3229820251464844,0
0.4635326385498046,0.3229820251464844,0
0.4623458862304687,0.3232681274414063,0
0.4628099441528320,0.3232681274414063,0
0.4623441696166992,0.3234626770019531,0
0.4615310668945312,0.3234626770019531,0
0.4621450424194335,0.3239009857177734,0
0.4626886367797851,0.3239009857177734,0
0.4635669708251953,0.3235387802124023,0
0.4620735168457031,0.3235387802124023,0
0.4625667572021484,0.3234169006347656,0
0.4640493392944336,0.3234169006347656,0
0.4630039215087891,0.3239616394042968,0
0.4635320663452148,0.3239616394042968,0
0.4631813049316406,0.3243799209594727,0
0.4624631881713867,0.3243799209594727,0
0.4631395339965820,0.3250133514404297,0
0.4637426376342773,0.3250133514404297,0
0.4646633148193359,0.3247037887573242,0
0.4638845443725585,0.3247037887573242,0
0.4637231826782227,0.3246414184570313,0
0.4651496887207031,0.3246414184570313,0
0.4641088485717773,0.3251850128173828,0
0.4647102355957031,0.3251850128173828,0
0.4642896652221680,0.3255569458007813,0
0.4635435104370117,0.3255569458007813,0
0.4642438888549805,0.3261703491210937,0
0.4648984909057617,0.3261703491210937,0
0.4657888412475586,0.3259048461914062,0
0.4642770767211914,0.3259048461914062,0
0.4647783279418945,0.3257738113403320,0
0.4662322998046875,0.3257738113403320,0
0.4651445388793945,0.3262807846069336,0
0.4657253265380859,0.3262807846069336,0
0.4652606964111328,0.3266624450683593,0
0.4644956588745117,0.3266624450683593,0
0.4651502609252929,0.3272180557250977,0
0.4657802581787109,0.3272180557250977,0
0.4666843414306641,0.3268484115600586,0
0.4652103424072265,0.3268484115600586,0
0.4655897140502929,0.3267505645751953,0
0.4671318054199218,0.3267505645751953,0
0.4659685134887695,0.3272066116333008,0
0.4664817810058594,0.3272066116333008,0
0.4661058425903320,0.3275836944580078,0
0.4652658462524414,0.3275836944580078,0
0.4659410476684570,0.3280883789062500,0
0.4664365768432617,0.3280883789062500,0
0.4674161911010742,0.3277284622192383,0
0.4658964157104492,0.3277284622192383,0
0.4663209915161133,0.3275384902954102,0
0.4678207397460937,0.3275384902954102,0
0.4666969299316406,0.3280277252197266,0
0.4672639846801758,0.3280277252197266,0
0.4668537139892578,0.3283927917480469,0
0.4660566329956055,0.3283927917480469,0
0.4667095184326172,0.3289455413818359,0
0.4673143386840820,0.3289455413818359,0
0.4682058334350586,0.3284734725952148,0
0.4666837692260742,0.3284734725952148,0
0.4671037673950195,0.3283143997192383,0
0.4685714721679687,0.3283143997192383,0
0.4674121856689453,0.3287761688232422,0
0.4679145812988281,0.3287761688232422,0
0.4675037384033203,0.3290382385253906,0
0.4666786193847656,0.3290382385253906,0
0.4673686981201172,0.3295503616333008,0
0.4678836822509765,0.3295503616333008,0
0.4687448501586914,0.3291418075561524,0
0.4671827316284179,0.3291418075561524,0
0.4676599502563477,0.3289009094238281,0
0.4690601348876953,0.3289009094238281,0
0.4679306030273437,0.3293455123901367,0
0.4684078216552734,0.3293455123901367,0
0.4680170059204101,0.3296699523925781,0
0.4684970855712891,0.3296699523925781,0
0.4677984237670898,0.3301849365234375,0
0.4683706283569335,0.3301849365234375,0
0.4692901611328125,0.3297254562377930,0
0.4677068710327148,0.3297254562377930,0
0.4681617736816406,0.3295372009277344,0
0.4696266174316406,0.3295372009277344,0
0.4684787750244140,0.3299308776855469,0
0.4690114974975585,0.3299308776855469,0
0.4686326980590820,0.3303005218505859,0
0.4678625106811523,0.3303005218505859,0
0.4684255599975586,0.3307428359985352,0
0.4689399719238281,0.3307428359985352,0
0.4698200225830078,0.3303354263305664,0
0.4683082580566406,0.3303354263305664,0
0.4687826156616210,0.3301694869995117,0
0.4702308654785156,0.3301694869995117,0
0.4690109252929687,0.3306032180786133,0
0.4695390701293945,0.3306032180786133,0
0.4691545486450195,0.3308864593505859,0
0.4684020996093750,0.3308864593505859,0
0.4690481185913086,0.3315015792846679,0
0.4695344924926758,0.3315015792846679,0
0.4705244064331054,0.3311004638671875,0
0.4690355300903320,0.3311004638671875,0
0.4693782806396484,0.3309133529663086,0
0.4708797454833984,0.3309133529663086,0
0.4697559356689453,0.3313447952270508,0
0.4702737808227539,0.3313447952270508,0
0.4699247360229492,0.3316709518432617,0
0.4691144943237304,0.3316709518432617,0
0.4697896957397460,0.3322586059570312,0
0.4703321456909180,0.3322586059570312,0
0.4712459564208984,0.3318094253540039,0
0.4696844100952148,0.3318094253540039,0
0.4701107025146484,0.3316600799560547,0
0.4715669631958008,0.3316600799560547,0
0.4703945159912109,0.3320182800292968,0
0.4707778930664062,0.3320182800292968,0
0.4702491760253906,0.3321035385131836,0
0.4692358016967773,0.3321035385131836,0
0.4696752548217773,0.3320228576660156,0
0.4697147369384765,0.3320228576660156,0
0.4702045440673828,0.3305717468261719,0
0.4679300308227539,0.3305717468261719,0
0.4677137374877929,0.3288414001464844,0
0.4681571960449218,0.3288414001464844,0
0.4661727905273437,0.3272283554077148,0
0.4654397964477539,0.3272283554077148,0
0.4640493392944336,0.3251060485839843,0
0.4617273330688476,0.3251060485839843,0
0.4611614227294922,0.3226020812988281,0
0.4600891113281250,0.3226020812988281,0
0.4594974517822266,0.3188627243041992,0
0.4564407348632812,0.3188627243041992,0
0.4558359146118164,0.3159204483032226,0
0.4560585021972656,0.3159204483032226,0
0.4542411804199218,0.3144876480102539,0
0.4540163040161133,0.3144876480102539,0
0.4534097671508789,0.3140121459960937,0
0.4525079727172852,0.3140121459960937,0
0.4533714294433593,0.3146490097045898,0
0.4541810989379882,0.3146490097045898,0
0.4553375244140625,0.3150157928466797,0
0.4542097091674804,0.3150157928466797,0
0.4551023483276367,0.3157642364501953,0
0.4570003509521484,0.3157642364501953,0
0.4562765121459961,0.3170894622802734,0
0.4572252273559570,0.3170894622802734,0
0.4572069168090820,0.3182195663452148,0
0.4568132400512695,0.3182195663452148,0
0.4577281951904297,0.3193868637084961,0
0.4585853576660156,0.3193868637084961,0
0.4596553802490234,0.3194601058959961,0
0.4583541870117187,0.3194601058959961,0
0.4589195251464844,0.3196151733398437,0
0.4604810714721679,0.3196151733398437,0
0.4594545364379883,0.3202686309814453,0
0.4600748062133789,0.3202686309814453,0
0.4597469329833984,0.3207630157470703,0
0.4590259552001953,0.3207630157470703,0
0.4597417831420898,0.3213609695434570,0
0.4603294372558593,0.3213609695434570,0
0.4613204956054687,0.3211412429809570,0
0.4598653793334961,0.3211412429809570,0
0.4604078292846679,0.3211727142333984,0
0.4620248794555664,0.3211727142333984,0
0.4611368179321289,0.3220396041870117,0
0.4618257522583007,0.3220396041870117,0
0.4616466522216797,0.3228904724121094,0
0.4611625671386719,0.3228904724121094,0
0.4620328903198242,0.3238901138305664,0
0.4628740310668945,0.3238901138305664,0
0.4639852523803711,0.3240812301635742,0
0.4627361297607422,0.3240812301635742,0
0.4632843017578125,0.3243198394775391,0
0.4649585723876953,0.3243198394775391,0
0.4639698028564453,0.3250339508056641,0
0.4646146774291992,0.3250339508056641,0
0.4643056869506836,0.3256788253784180,0
0.4636499404907226,0.3256788253784180,0
0.4643085479736328,0.3262973785400390,0
0.4649253845214844,0.3262973785400390,0
0.4658117294311523,0.3258848190307617,0
0.4642484664916992,0.3258848190307617,0
0.4646100997924805,0.3256496429443359,0
0.4659667968750000,0.3256496429443359,0
0.4648040771484375,0.3259397506713867,0
0.4652687072753906,0.3259397506713867,0
0.4647377014160156,0.3260335922241211,0
0.4638530731201171,0.3260335922241211,0
0.4644464492797851,0.3263294219970703,0
0.4648767471313476,0.3263294219970703,0
0.4656538009643554,0.3257137298583984,0
0.4640235900878906,0.3257137298583984,0
0.4643926620483398,0.3253057479858398,0
0.4656904220581055,0.3253057479858398,0
0.4645448684692383,0.3255941390991211,0
0.4649436950683594,0.3255941390991211,0
0.4645013809204102,0.3258298873901367,0
0.4636224746704101,0.3258298873901367,0
0.4642604827880859,0.3262281417846680,0
0.4647548675537109,0.3262281417846680,0
0.4656744003295898,0.3257966995239258,0
0.4641437530517578,0.3257966995239258,0
0.4645854949951171,0.3256267547607422,0
0.4660812377929687,0.3256267547607422,0
0.4648979187011719,0.3260427474975586,0
0.4654157638549805,0.3260427474975586,0
0.4650718688964843,0.3264610290527344,0
0.4643125534057617,0.3264610290527344,0
0.4650335311889648,0.3270956039428711,0
0.4655994415283203,0.3270956039428711,0
0.4665624618530273,0.3267522811889648,0
0.4650587081909179,0.3267522811889648,0
0.4655376434326172,0.3266149520874023,0
0.4669755935668945,0.3266149520874023,0
0.4658792495727539,0.3270898818969726,0
0.4664405822753906,0.3270898818969726,0
0.4660589218139648,0.3275150299072265,0
0.4653219223022461,0.3275150299072265,0
0.4659570693969726,0.3281232833862305,0
0.4665893554687500,0.3281232833862305,0
0.4675786972045898,0.3278320312500000,0
0.4660972595214843,0.3278320312500000,0
0.4665063858032226,0.3277290344238281,0
0.4680301666259765,0.3277290344238281,0
0.4669549942016601,0.3283155441284180,0
0.4675271987915039,0.3283155441284180,0
0.4671724319458008,0.3286972045898438,0
0.4664033889770507,0.3286972045898438,0
0.4670322418212891,0.3293329238891601,0
0.4675586700439453,0.3293329238891601,0
0.4685205459594726,0.3288734436035156,0
0.4670156478881836,0.3288734436035156,0
0.4674287796020508,0.3287704467773437,0
0.4688684463500976,0.3287704467773437,0
0.4683122634887695,0.3293300628662109,0
0.4691814422607422,0.3286857604980469,0
0.4684816360473633,0.3296253204345703,0
0.4682064056396484,0.3296253204345703,0
0.4675563812255859,0.3296716690063476,0
0.4688261032104492,0.3296716690063476,0
0.4684152603149414,0.3295772552490234,0
0.4683631896972656,0.3295772552490234,0
0.4680782318115234,0.3310083389282226,0
0.4684249877929687,0.3299411773681640,0
0.4685663223266601,0.3303354263305664,0
0.4690486907958984,0.3303354263305664,0
0.4681858062744140,0.3319444656372070,0
0.4694486618041992,0.3303136825561523,0
0.4689153671264648,0.3302650451660156,0
0.4687454223632812,0.3303749084472656,0
0.4690423965454101,0.3306329727172851,0
0.4695121765136718,0.3306741714477539,0
0.4696186065673828,0.3295446395874023,0
0.4693811416625976,0.3309459686279297,0
0.4699304580688476,0.3309436798095703,0
0.4704191207885742,0.3310140609741211,0
0.4691528320312500,0.3308343887329102,0
0.4692026138305664,0.3310134887695312,0
0.4700231552124023,0.3312126159667969,0
0.4707727432250977,0.3305780410766602,0
0.4698068618774414,0.3315370559692383,0
0.4694475173950195,0.3320274353027344,0
0.4708889007568359,0.3315862655639648,0
0.4700849533081055,0.3319215774536133,0
0.4698045730590820,0.3315879821777344,0
0.4685400009155273,0.3329183578491211,0
0.4706171035766601,0.3312755584716797,0
0.4707372665405273,0.3321750640869141,0
0.4700654983520507,0.3327249526977539,0
0.4714805603027343,0.3322689056396484,0
0.4706274032592773,0.3322689056396484,0
0.4703126907348633,0.3322242736816406,0
0.4690074920654297,0.3335002899169922,0
0.4719446182250976,0.3318357467651367,0
0.4706897735595703,0.3328519821166992,0
0.4704883575439453,0.3333120346069336,0
0.4702348709106445,0.3344369888305664,0
0.4711452484130859,0.3332496643066406,0
0.4710165023803711,0.3328187942504883,0
0.4696014404296875,0.3342584609985351,0
0.4711990356445312,0.3331970214843750,0
0.4713661193847656,0.3336324691772461,0
0.4713157653808593,0.3341754913330078,0
0.4710250854492187,0.3336982727050781,0
0.4720132827758789,0.3337852478027344,0
0.4716693878173828,0.3346178054809570,0
0.4720516204833984,0.3342390060424805,0
0.4725969314575195,0.3341623306274414,0
0.4714124679565430,0.3346063613891602,0
0.4728046417236328,0.3345874786376953,0
0.4720212936401367,0.3347208023071289,0
0.4738140106201172,0.3333366394042969,0
0.4726644515991211,0.3355281829833984,0
0.4741149902343750,0.3346858978271484,0
0.4729757308959961,0.3350412368774414,0
0.4734146118164062,0.3349348068237304,0
0.4731502532958984,0.3333560943603516,0
0.4725282669067383,0.3347957611083984,0
0.4721071243286132,0.3339563369750976,0
0.4726552963256836,0.3333652496337891,0
0.4699762344360351,0.3314643859863281,0
0.4690876007080078,0.3314643859863281,0
0.4675100326538086,0.3297042846679688,0
0.4676330566406250,0.3278062820434570,0
0.4650266647338867,0.3256639480590820,0
0.4628625869750976,0.3240543365478515,0
0.4611310958862305,0.3191539764404297,0
0.4611310958862305,0.3207441329956054,0
0.4573785781860351,0.3178636550903320,0
0.4564184188842773,0.3168931961059570,0
0.4559949874877929,0.3161767959594726,0
0.4566398620605469,0.3155782699584961,0
0.4558982849121094,0.3165298461914062,0
0.4555566787719726,0.3171947479248047,0
0.4578174591064453,0.3164056777954101,0
0.4568447113037109,0.3177131652832031,0
0.4595769882202148,0.3185783386230469,0
0.4581315994262695,0.3204317092895508,0
0.4597526550292969,0.3197759628295898,0
0.4597732543945312,0.3197759628295898,0
0.4601886749267578,0.3213020324707031,0
0.4601886749267578,0.3220275878906250,0
0.4619916915893554,0.3219646453857422,0
0.4612804412841797,0.3223812103271484,0
0.4611368179321289,0.3221746444702148,0
0.4599901199340820,0.3233785629272461,0
0.4619859695434570,0.3219022750854492,0
0.4616397857666015,0.3235359191894531,0
0.4615808486938476,0.3231399536132812,0
0.4622034072875976,0.3233459472656250,0
0.4617708206176758,0.3231044769287109,0
0.4623813629150391,0.3235679626464844,0
0.4624322891235351,0.3236789703369141,0
0.4616117477416992,0.3248262405395508,0
0.4638010025024414,0.3238546371459961,0
0.4637168884277343,0.3259328842163086,0
0.4641998291015625,0.3261503219604492,0
0.4650890350341796,0.3262876510620117,0
0.4650014877319336,0.3263946533203125,0
0.4656131744384766,0.3265434265136719,0
0.4656595230102539,0.3270109176635742,0
0.4646427154541015,0.3282302856445312,0
0.4676868438720703,0.3269187927246094,0
0.4664068222045898,0.3279579162597656,0
0.4663553237915039,0.3284723281860352,0
0.4660846710205078,0.3284723281860352,0
0.4663192749023437,0.3279973983764649,0
0.4669332504272461,0.3278800964355469,0
0.4665430068969726,0.3290788650512695,0
0.4667221069335937,0.3280872344970703,0
0.4666563034057617,0.3289083480834961,0
0.4657453536987304,0.3281696319580078,0
0.4663284301757812,0.3283527374267578,0
0.4659559249877929,0.3277656555175781,0
0.4664749145507812,0.3275774002075195,0
0.4662534713745117,0.3274080276489258,0
0.4663982391357422,0.3275733947753906,0
0.4668806076049805,0.3274394989013672,0
0.4668457031250000,0.3264759063720703,0
0.4668457031250000,0.3277833938598633,0
0.4658775329589844,0.3276901245117188,0
0.4675741195678711,0.3264169692993164,0
0.4664251327514648,0.3285026550292969,0
0.4679546356201172,0.3276294708251953,0
0.4673795700073242,0.3281072616577148,0
0.4673904418945312,0.3275001525878906,0
0.4674734115600586,0.3273004531860351,0
0.4673898696899414,0.3286027908325195,0
0.4681709289550781,0.3286977767944336,0
0.4685651779174804,0.3288162231445312,0
0.4674791336059570,0.3288642883300781,0
0.4675666809082031,0.3288642883300781,0
0.4685583114624023,0.3293037414550781,0
0.4685611724853516,0.3288333892822266,0
0.4687007904052734,0.3298404693603516,0
0.4681612014770508,0.3298404693603516,0
0.4697610855102539,0.3299612045288086,0
0.4697610855102539,0.3300447463989258,0
0.4686367034912109,0.3300132751464844,0
0.4686716079711914,0.3302204132080078,0
0.4696306228637695,0.3304738998413086,0
0.4704872131347656,0.3298942565917969,0
0.4696146011352539,0.3309024810791015,0
0.4691619873046875,0.3315004348754882,0
0.4706388473510742,0.3310787200927734,0
0.4698429107666016,0.3310787200927734,0
0.4710519790649414,0.3310237884521484,0
0.4695665359497070,0.3324193954467773,0
0.4704729080200195,0.3308286666870117,0
0.4713197708129883,0.3308286666870117,0
0.4703115463256836,0.3317928314208984,0
0.4698686599731445,0.3324296951293945,0
0.4714948654174804,0.3318660736083984,0
0.4706045150756836,0.3318660736083984,0
0.4702491760253906,0.3320308685302734,0
0.4691213607788086,0.3332262039184570,0
0.4712648391723633,0.3316349029541015,0
0.4711927413940429,0.3325830459594726,0
0.4705902099609375,0.3330694198608398,0
0.4720693588256836,0.3325767517089844,0
0.4708683013916015,0.3324033737182617,0
0.4708728790283203,0.3324033737182617,0
0.4717208862304687,0.3328067779541016,0
0.4717208862304687,0.3322237014770508,0
0.4724481582641601,0.3322237014770508,0
0.4716819763183593,0.3318346023559570,0
0.4710880279541015,0.3336959838867187,0
0.4714719772338867,0.3336959838867187,0
0.4726243972778320,0.3331232070922852,0
0.4711961746215820,0.3331232070922852,0
0.4714118957519531,0.3330682754516601,0
0.4728990554809570,0.3330682754516601,0
0.4716997146606445,0.3334356307983398,0
0.4722839355468750,0.3334356307983398,0
0.4718576431274414,0.3337984085083008,0
0.4710319519042969,0.3337984085083008,0
0.4716178894042968,0.3342990875244141,0
0.4720464706420898,0.3342990875244141,0
0.4731908798217773,0.3337783813476562,0
0.4717683792114258,0.3337783813476562,0
0.4719583511352539,0.3336450576782227,0
0.4734500885009765,0.3336450576782227,0
0.4722805023193359,0.3340776443481445,0
0.4728710174560546,0.3340776443481445,0
0.4724607467651367,0.3343917846679688,0
0.4716762542724609,0.3343917846679688,0
0.4722410202026367,0.3349737167358398,0
0.4726661682128906,0.3349737167358398,0
0.4737344741821289,0.3344770431518554,0
0.4722730636596679,0.3344770431518554,0
0.4725219726562500,0.3343059539794922,0
0.4739576339721679,0.3343059539794922,0
0.4727788925170898,0.3346830368041992,0
0.4733293533325195,0.3346830368041992,0
0.4729734420776367,0.3350475311279297,0
0.4720796585083007,0.3350475311279297,0
0.4726793289184570,0.3355201721191406,0
0.4731536865234375,0.3355201721191406,0
0.4742506027221680,0.3349554061889649,0
0.4727989196777344,0.3349554061889649,0
0.4729722976684570,0.3348506927490234,0
0.4744348526000977,0.3348506927490234,0
0.4733299255371093,0.3352466583251953,0
0.4738935470581054,0.3352466583251953,0
0.4734180450439453,0.3356454849243164,0
0.4726186752319336,0.3356454849243164,0
0.4732635498046875,0.3362932205200195,0
0.4736709594726562,0.3362932205200195,0
0.4747976303100586,0.3355728149414062,0
0.4733167648315429,0.3355728149414062,0
0.4735290527343750,0.3355035781860352,0
0.4750362396240234,0.3355035781860352,0
0.4738391876220703,0.3358846664428711,0
0.4744955062866211,0.3358846664428711,0
0.4740537643432617,0.3362749099731445,0
0.4732200622558593,0.3362749099731445,0
0.4737733840942382,0.3368247985839843,0
0.4741722106933594,0.3368247985839843,0
0.4752685546875000,0.3361295700073242,0
0.4736309051513672,0.3361295700073242,0
0.4736749649047851,0.3356042861938476,0
0.4747850418090820,0.3356042861938476,0
0.4732343673706054,0.3350852966308593,0
0.4731971740722656,0.3350852966308593,0
0.4721632003784180,0.3340353012084961,0
0.4704648971557617,0.3340353012084961,0
0.4702880859375000,0.3327701568603516,0
0.4695110321044922,0.3327701568603516,0
0.4697547912597656,0.3298742294311524,0
0.4669275283813477,0.3298742294311524,0
0.4660354614257812,0.3269645690917969,0
0.4658317565917969,0.3269645690917969,0
0.4632963180541992,0.3240789413452148,0
0.4622909545898437,0.3240789413452148,0
0.4606990814208984,0.3215566635131836,0
0.4586271286010742,0.3215566635131836,0
0.4583644866943359,0.3199865341186524,0
0.4578643798828125,0.3199865341186524,0
0.4586769104003906,0.3182876586914062,0
0.4570312500000000,0.3182876586914062,0
0.4573688507080078,0.3181554794311524,0
0.4590190887451172,0.3181554794311524,0
0.4591232299804687,0.3189811706542969,0
0.4591741561889648,0.3204048156738281,0
0.4599237442016602,0.3216922760009766,0
0.0000000000000000,0.0000000000000000,0
