REDsignal,IRsignal,synced
0.6105703353881836,0.4466365814208984,0
0.6168811798095702,0.4466365814208984,0
0.6134233474731445,0.4559188842773437,0
0.6038709640502929,0.4559188842773437,0
0.6142742156982421,0.4516004562377929,0
0.6082895278930663,0.4516004562377929,0
0.6132368087768555,0.4489906311035156,0
0.6237573623657227,0.4489906311035156,0
0.6136808395385742,0.4525428771972656,0
0.6104496002197265,0.4525428771972656,0
0.6102596282958984,0.4467704772949219,0
0.6163255691528320,0.4467704772949219,0
0.6129701614379882,0.4555932998657226,0
0.6033657073974609,0.4555932998657226,0
0.6141820907592773,0.4514928817749023,0
0.6079559326171875,0.4514928817749023,0
0.6124763488769531,0.4490919113159180,0
0.6231239318847656,0.4490919113159180,0
0.6132162094116210,0.4525594711303711,0
0.6101406097412109,0.4525594711303711,0
0.6099403381347656,0.4470291137695312,0
0.6161373138427734,0.4470291137695312,0
0.6134668350219726,0.4558210372924805,0
0.6039819717407227,0.4558210372924805,0
0.6156240463256836,0.4521846771240234,0
0.6093538284301757,0.4521846771240234,0
0.6137889862060547,0.4501430511474609,0
0.6246150970458985,0.4501430511474609,0
0.6149900436401367,0.4536712646484375,0
0.6119728088378906,0.4536712646484375,0
0.6116031646728516,0.4483411788940430,0
0.6176937103271484,0.4483411788940430,0
0.6153722763061523,0.4567039489746094,0
0.6059703826904297,0.4567039489746094,0
0.6180387496948242,0.4532878875732422,0
0.6115447998046875,0.4532878875732422,0
0.6153350830078125,0.4512119293212891,0
0.6260381698608398,0.4512119293212891,0
0.6162786483764648,0.4543195724487304,0
0.6130331039428710,0.4543195724487304,0
0.6123270034790039,0.4489328384399414,0
0.6183134078979492,0.4489328384399414,0
0.6161069869995117,0.4565998077392578,0
0.6066530227661132,0.4565998077392578,0
0.6191471099853515,0.4536174774169922,0
0.6125484466552734,0.4536174774169922,0
0.6159988403320312,0.4515844345092773,0
0.6267734527587890,0.4515844345092773,0
0.6169618606567383,0.4545965194702148,0
0.6137231826782227,0.4545965194702148,0
0.6128780364990234,0.4491748809814453,0
0.6187665939331054,0.4491748809814453,0
0.6168777465820312,0.4564470291137695,0
0.6073637008666992,0.4564470291137695,0
0.6201742172241210,0.4538051605224609,0
0.6132614135742187,0.4538051605224609,0
0.6111717224121094,0.4519969940185546,0
0.6111717224121094,0.4607603073120117,0
0.6176942825317383,0.4525772094726562,0
0.6141145706176757,0.4673372268676758,0
0.6141145706176757,0.4500949859619141,0
0.6195150375366211,0.4577814102172851,0
0.6109365463256836,0.4577814102172851,0
0.6254934310913086,0.4568681716918945,0
0.6198240280151367,0.4568681716918945,0
0.6242013931274414,0.4565505981445312,0
0.6364643096923828,0.4565505981445312,0
0.6267454147338867,0.4605972290039062,0
0.6243404388427735,0.4605972290039062,0
0.6233596801757812,0.4559589385986328,0
0.6286022186279296,0.4559589385986328,0
0.6262184143066406,0.4620861053466797,0
0.6156543731689453,0.4620861053466797,0
0.6286314010620117,0.4594184875488281,0
0.6207687377929687,0.4594184875488281,0
0.6230810165405273,0.4573179244995117,0
0.6337308883666992,0.4573179244995117,0
0.6235061645507812,0.4597749710083008,0
0.6200609207153320,0.4597749710083008,0
0.6187030792236328,0.4546308517456055,0
0.6243444442749023,0.4546308517456055,0
0.6229127883911133,0.4610115051269531,0
0.6132968902587891,0.4610115051269531,0
0.6272764205932617,0.4591455459594727,0
0.6198955535888672,0.4591455459594727,0
0.6222805023193360,0.4573780059814453,0
0.6333852767944336,0.4573780059814453,0
0.6234672546386718,0.4599729537963867,0
0.6203979492187500,0.4599729537963867,0
0.6193513870239258,0.4551097869873046,0
0.6254241943359374,0.4551097869873046,0
0.6245332717895508,0.4617507934570312,0
0.6153974533081055,0.4617507934570312,0
0.6301305770874023,0.4604032516479492,0
0.6233922958374023,0.4604032516479492,0
0.6261199951171875,0.4591421127319336,0
0.6379297256469726,0.4591421127319336,0
0.6281547546386719,0.4618165969848633,0
0.6250717163085937,0.4618165969848633,0
0.6236417770385742,0.4569700241088867,0
0.6292991638183594,0.4569700241088867,0
0.6282222747802734,0.4630245208740234,0
0.6182870864868164,0.4630245208740234,0
0.6325887680053711,0.4614366531372070,0
0.6247077941894531,0.4614366531372070,0
0.6262395858764648,0.4595232009887695,0
0.6372144699096679,0.4595232009887695,0
0.6266681671142578,0.4615785598754882,0
0.6229385375976563,0.4615785598754882,0
0.6211572647094726,0.4564773559570312,0
0.6265645980834961,0.4564773559570312,0
0.6254396438598633,0.4619899749755859,0
0.6156795501708984,0.4619899749755859,0
0.6302885055541992,0.4607442855834961,0
0.6225128173828125,0.4607442855834961,0
0.6239519119262695,0.4591615676879883,0
0.6351665496826172,0.4591615676879883,0
0.6245956420898438,0.4609508514404297,0
0.6210525512695312,0.4609508514404297,0
0.6192941665649414,0.4560682296752929,0
0.6248897552490235,0.4560682296752929,0
0.6239564895629882,0.4615333557128906,0
0.6143737792968750,0.4615333557128906,0
0.6289472579956055,0.4604032516479492,0
0.6211320877075195,0.4604032516479492,0
0.6221248626708984,0.4586826324462890,0
0.6332777023315429,0.4586826324462890,0
0.6224315643310546,0.4601474761962890,0
0.6185348510742187,0.4601474761962890,0
0.6165178298950195,0.4550382614135742,0
0.6218164443969726,0.4550382614135742,0
0.6208024978637695,0.4600622177124023,0
0.6110292434692383,0.4600622177124023,0
0.6256891250610351,0.4589927673339844,0
0.6178625106811523,0.4589927673339844,0
0.6187860488891601,0.4572441101074218,0
0.6303182601928711,0.4572441101074218,0
0.6196706771850585,0.4588857650756836,0
0.6160062789916992,0.4588857650756836,0
0.6143543243408203,0.4542423248291015,0
0.6201215744018554,0.4542423248291015,0
0.6195945739746094,0.4593761444091797,0
0.6102991104125977,0.4593761444091797,0
0.6255849838256836,0.4589149475097656,0
0.6180948257446289,0.4589149475097656,0
0.6189731597900391,0.4576194763183594,0
0.6310724258422852,0.4576194763183594,0
0.6204551696777344,0.4594282150268554,0
0.6168136596679688,0.4594282150268554,0
0.6153293609619140,0.4550228118896484,0
0.6211938858032227,0.4550228118896484,0
0.6206995010375976,0.4600519180297851,0
0.6114995956420898,0.4600519180297851,0
0.6269113540649414,0.4597085952758789,0
0.6194051742553711,0.4597085952758789,0
0.6200712203979492,0.4585218429565430,0
0.6326150894165039,0.4585218429565430,0
0.6218616485595703,0.4603254318237304,0
0.6181612014770508,0.4603254318237304,0
0.6168611526489257,0.4558971405029297,0
0.6229511260986328,0.4558971405029297,0
0.6225265502929688,0.4610000610351562,0
0.6134428024291992,0.4610000610351562,0
0.6288522720336914,0.4608461380004882,0
0.6212139129638672,0.4608461380004882,0
0.6215738296508789,0.4595249176025391,0
0.6343511581420899,0.4595249176025391,0
0.6232795715332031,0.4612621307373047,0
0.6193725585937500,0.4612621307373047,0
0.6180084228515624,0.4568853378295898,0
0.6241058349609375,0.4568853378295898,0
0.6236457824707031,0.4617805480957031,0
0.6146844863891602,0.4617805480957031,0
0.6301340103149414,0.4617691040039062,0
0.6223852157592773,0.4617691040039062,0
0.6226999282836914,0.4605348587036133,0
0.6358234405517578,0.4605348587036133,0
0.6246488571166992,0.4624242782592773,0
0.6205804824829101,0.4624242782592773,0
0.6193141937255859,0.4581985473632812,0
0.6254116058349609,0.4581985473632812,0
0.6249521255493163,0.4628917694091796,0
0.6161121368408203,0.4628917694091796,0
0.6313991546630859,0.4630382537841797,0
0.6235708236694336,0.4630382537841797,0
0.6236566543579102,0.4616970062255859,0
0.6371257781982421,0.4616970062255859,0
0.6256519317626953,0.4634010314941406,0
0.6212882995605469,0.4634010314941406,0
0.6203275680541992,0.4593040466308593,0
0.6263883590698242,0.4593040466308593,0
0.6259975433349609,0.4636705398559570,0
0.6175289154052734,0.4636705398559570,0
0.6327169418334960,0.4639680862426758,0
0.6249298095703125,0.4639680862426758,0
0.6248010635375977,0.4625816345214844,0
0.6384836196899414,0.4625816345214844,0
0.6269319534301757,0.4648836135864258,0
0.6249561309814453,0.4648836135864258,0
0.6243719100952149,0.4620483398437500,0
0.6306484222412109,0.4620483398437500,0
0.6305614471435547,0.4662860870361328,0
0.6226318359374999,0.4662860870361328,0
0.6380189895629883,0.4668462753295898,0
0.6302616119384765,0.4668462753295898,0
0.6300127029418945,0.4656286239624023,0
0.6443773269653320,0.4656286239624023,0
0.6324468612670898,0.4674522399902343,0
0.6277238845825195,0.4674522399902343,0
0.6273651123046875,0.4642141342163086,0
0.6324113845825196,0.4676828384399414,0
0.6282503128051757,0.4785112380981445,0
0.6342006683349609,0.4649894714355469,0
0.6219715118408203,0.4749469757080078,0
0.6275144577026367,0.4689107894897461,0
0.6407741546630860,0.4629009246826172,0
0.6289707183837890,0.4658391952514648,0
0.6352970123291015,0.4689399719238281,0
0.6304899215698242,0.4799451828002930,0
0.6362468719482421,0.4661516189575195,0
0.6335048675537109,0.4764604568481445,0
0.6281192779541015,0.4695962905883789,0
0.6419134140014648,0.4634496688842773,0
0.6302782058715820,0.4669441223144531,0
0.6365163803100585,0.4692941665649414,0
0.6317590713500977,0.4804201126098633,0
0.6374158859252930,0.4666099548339844,0
0.6348764419555664,0.4772420883178711,0
0.6301809310913086,0.4701501846313476,0
0.6443544387817383,0.4644401550292969,0
0.6329349517822266,0.4687219619750976,0
0.6394672393798828,0.4705959320068359,0
0.6346807479858398,0.4819959640502929,0
0.6377408981323242,0.4710920333862305,0
0.6541614532470703,0.4700311660766601,0
0.6346126556396484,0.4724704742431640,0
0.6472795486450195,0.4631904602050781,0
0.6419855117797851,0.4725151062011719,0
0.6419855117797851,0.4742637634277344,0
0.6388298034667969,0.4685846328735351,0
0.6446039199829101,0.4838407516479492,0
0.6416255950927734,0.4810775756835937,0
0.6364465713500976,0.4758613586425781,0
0.6383560180664062,0.4704185485839844,0
0.6389030456542969,0.4763557434082031,0
0.6461580276489257,0.4772277832031250,0
0.6423574447631836,0.4893030166625976,0
0.6482076644897461,0.4751615524291992,0
0.6619205474853516,0.4760313034057617,0
0.6420696258544921,0.4781278610229492,0
0.6531309127807617,0.4723749160766602,0
0.6476766586303710,0.4722925186157226,0
0.6483123779296874,0.4791320800781250,0
0.6621997833251952,0.4729385375976562,0
0.6496976852416992,0.4887983322143554,0
0.6464624404907227,0.4772850036621094,0
0.6496107101440429,0.4806518554687500,0
0.6547285079956054,0.4702823638916016,0
0.6502332687377930,0.4750591278076172,0
0.6472715377807617,0.4816434860229492,0
0.6653640747070312,0.4752473831176758,0
0.6593353271484375,0.4823535919189453,0
0.6488273620605468,0.4793758392333984,0
0.6458833694458007,0.4793758392333984,0
0.6570430755615234,0.4722799301147461,0
0.6594211578369140,0.4759918212890625,0
0.6524047851562500,0.4835752487182617,0
0.6499345779418945,0.4955125808715820,0
0.6676580429077148,0.4772237777709961,0
0.6426921844482422,0.4933937072753906,0
0.6522811889648438,0.4814249038696289,0
0.6561613082885742,0.4851945877075195,0
0.6608327865600586,0.4757640838623047,0
0.6577852249145507,0.4809322357177734,0
0.6553173065185547,0.4865324020385742,0
0.6725458145141602,0.4807537078857422,0
0.6672231674194335,0.4873455047607422,0
0.6575145721435547,0.4845033645629883,0
0.6557584762573242,0.4903175354003906,0
0.6649972915649414,0.4787870407104492,0
0.6678251266479492,0.4817533493041992,0
0.6583007812500000,0.4884401321411133,0
0.6622987747192383,0.4872104644775390,0
0.6691886901855468,0.4877883911132812,0
0.6620887756347656,0.4877883911132812,0
0.6559993743896484,0.4836135864257812,0
0.6559993743896484,0.4852157592773437,0
0.6637893676757812,0.4792808532714843,0
0.6534748077392578,0.4879262924194336,0
0.6607646942138672,0.4832954406738281,0
0.6571437835693359,0.4832954406738281,0
0.6601627349853515,0.4834470748901367,0
0.6601627349853515,0.4918275833129883,0
0.6508832931518554,0.4808973312377929,0
0.6590480804443359,0.4820652008056641,0
0.6521587371826172,0.4852586746215820,0
0.6588266372680663,0.4852586746215820,0
0.6567003250122070,0.4924095153808594,0
0.6716497421264648,0.4757720947265625,0
0.6599487304687500,0.4908931732177734,0
0.6557172775268555,0.4780866622924804,0
0.6596128463745117,0.4819879531860352,0
0.6620864868164062,0.4819879531860352,0
0.6598823547363281,0.4860918045043945,0
0.6598823547363281,0.4828170776367187,0
0.6727592468261718,0.4766080856323242,0
0.6679035186767578,0.4829114913940429,0
0.6569274902343750,0.4791349411010742,0
0.6740541458129883,0.4791349411010742,0
0.6633939743041992,0.4833583831787109,0
0.6633939743041992,0.4769239425659180,0
0.6614627838134766,0.4844020843505859,0
0.6635141372680664,0.4732629776000976,0
0.6692407608032226,0.4789793014526367,0
0.6608854293823242,0.4845571517944336,0
0.6583053588867187,0.4830722808837891,0
0.6559198379516601,0.4896434783935547,0
0.6745330810546875,0.4793798446655273,0
0.6590085983276367,0.4809562683105468,0
0.6590497970581054,0.4835191726684570,0
0.6649200439453125,0.4762252807617187,0
0.6614891052246094,0.4900749206542969,0
0.6634363174438477,0.4856523513793945,0
0.6617179870605469,0.4793901443481445,0
0.6693923950195312,0.4799039840698242,0
0.6593221664428711,0.4920684814453125,0
0.6759910583496094,0.4810146331787109,0
0.6535131454467773,0.4853548049926757,0
0.6652542114257812,0.4790908813476562,0
0.6640817642211914,0.4830694198608398,0
0.6628469467163086,0.4847190856933594,0
0.6624120712280274,0.4798542022705078,0
0.6649452209472656,0.4948356628417969,0
0.6597049713134765,0.4929050445556640,0
0.6646236419677735,0.4832250595092773,0
0.6541986465454102,0.4862680435180664,0
0.6628068923950196,0.4922098159790039,0
0.6652124404907226,0.4872882843017578,0
0.6638385772705078,0.4810609817504883,0
0.6707519531250000,0.4812171936035156,0
0.6608242034912110,0.4944889068603515,0
0.6778747558593750,0.4828027725219726,0
0.6548984527587890,0.4874233245849609,0
0.6669937133789062,0.4808601379394531,0
0.6658321380615234,0.4850234985351562,0
0.6640136718749999,0.4858234405517578,0
0.6640136718749999,0.4806283950805664,0
0.6656547546386719,0.4950468063354492,0
0.6595436096191406,0.4929811477661132,0
0.6641075134277343,0.4845840454101562,0
0.6524007797241210,0.4845840454101562,0
0.6635547637939453,0.4813293457031250,0
0.6602594375610351,0.4838996887207031,0
0.6618610382080078,0.4764232635498047,0
0.6515790939331054,0.4912302017211914,0
0.6568525314331054,0.4797735214233398,0
0.6623090744018555,0.4813837051391601,0
0.6552406311035156,0.4882061004638671,0
0.6623262405395508,0.4794536590576172,0
0.6610988616943360,0.4928930282592773,0
0.6610988616943360,0.4751701354980469,0
0.6713624954223633,0.4751701354980469,0
0.6630723953247070,0.4781398773193359,0
0.6630723953247070,0.4906225204467773,0
0.6588586807250977,0.4798513412475586,0
0.6535583496093750,0.4798513412475586,0
0.6631439208984374,0.4750230789184570,0
0.6729200363159179,0.4750230789184570,0
0.6633121490478515,0.4828302383422851,0
0.6603984832763672,0.4828302383422851,0
0.6622850418090820,0.4765148162841797,0
0.6722002029418945,0.4765148162841797,0
0.6643369674682617,0.4919683456420898,0
0.6532648086547851,0.4919683456420898,0
0.6604499816894531,0.4817916870117187,0
0.6642156600952148,0.4817916870117187,0
0.6646036148071289,0.4772506713867187,0
0.6747087478637696,0.4772506713867187,0
0.6650270462036133,0.4850807189941406,0
0.6621923446655273,0.4850807189941406,0
0.6640663146972656,0.4787910461425781,0
0.6735345840454101,0.4787910461425781,0
0.6660215377807617,0.4939046859741211,0
0.6551313400268555,0.4939046859741211,0
0.6620504379272460,0.4842327117919922,0
0.6570579528808593,0.4842327117919922,0
0.6662567138671874,0.4795812606811523,0
0.6763784408569335,0.4795812606811523,0
0.6667579650878906,0.4869558334350585,0
0.6638242721557617,0.4869558334350585,0
0.6657136917114258,0.4803422927856445,0
0.6748008728027344,0.4803422927856445,0
0.6673913955688476,0.4948528289794922,0
0.6565984725952149,0.4948528289794922,0
0.6632755279541015,0.4853410720825195,0
0.6581954956054688,0.4853410720825195,0
0.6672517776489257,0.4806953430175781,0
0.6775697708129883,0.4806953430175781,0
0.6677072525024413,0.4875698089599609,0
0.6645864486694336,0.4875698089599609,0
0.6663299560546875,0.4808847427368164,0
0.6749376296997071,0.4808847427368164,0
0.6678897857666015,0.4949655532836914,0
0.6572204589843750,0.4949655532836914,0
0.6636497497558593,0.4858354568481445,0
0.6586011886596680,0.4858354568481445,0
0.6675464630126953,0.4814283370971679,0
0.6779634475708007,0.4814283370971679,0
0.6680431365966797,0.4880968093872070,0
0.6650293350219726,0.4880968093872070,0
0.6667768478393554,0.4815296173095703,0
0.6697614669799804,0.4815296173095703,0
0.6684791564941406,0.4953912734985351,0
0.6579660415649414,0.4953912734985351,0
0.6644886016845702,0.4869466781616211,0
0.6594526290893554,0.4869466781616211,0
0.6684562683105468,0.4827289581298828,0
0.6789768218994140,0.4827289581298828,0
0.6690444946289062,0.4892578125000000,0
0.6661245346069335,0.4892578125000000,0
0.6677639007568359,0.4828216552734375,0
0.6759304046630860,0.4828216552734375,0
0.6696252822875977,0.4963457107543945,0
0.6593267440795898,0.4963457107543945,0
0.6658481597900391,0.4882570266723633,0
0.6607870101928711,0.4882570266723633,0
0.6693494796752929,0.4840295791625976,0
0.6798791885375977,0.4840295791625976,0
0.6697803497314453,0.4896366119384765,0
0.6665382385253906,0.4896366119384765,0
0.6678348541259765,0.4824697494506835,0
0.6752992630004883,0.4824697494506835,0
0.6688253402709960,0.4943487167358398,0
0.6583271026611328,0.4943487167358398,0
0.6645624160766601,0.4855190277099609,0
0.6591344833374023,0.4855190277099609,0
0.6670692443847656,0.4804109573364257,0
0.6774164199829101,0.4804109573364257,0
0.6670606613159179,0.4853639602661133,0
0.6638700485229492,0.4853639602661133,0
0.6652050018310547,0.4782691955566406,0
0.6724760055541992,0.4782691955566406,0
0.6666961669921875,0.4901178359985351,0
0.6564348220825195,0.4901178359985351,0
0.6632703781127930,0.4823604583740234,0
0.6580701828002929,0.4823604583740234,0
0.6660358428955078,0.4782417297363281,0
0.6767721176147461,0.4782417297363281,0
0.6665977478027344,0.4836942672729492,0
0.6636566162109375,0.4836942672729492,0
0.6651008605957031,0.4773370742797851,0
0.6722974777221680,0.4773370742797851,0
0.6670286178588867,0.4895753860473633,0
0.6572216033935546,0.4895753860473633,0
0.6644926071166992,0.4828771591186523,0
0.6593879699707031,0.4828771591186523,0
0.6671739578247070,0.4793975830078125,0
0.6782672882080077,0.4793975830078125,0
0.6682891845703125,0.4852008819580078,0
0.6656850814819336,0.4852008819580078,0
0.6672288894653320,0.4794244766235352,0
0.6744712829589844,0.4794244766235352,0
0.6696481704711914,0.4916891098022461,0
0.6602222442626953,0.4916891098022461,0
0.6680156707763671,0.4857702255249023,0
0.6630128860473633,0.4857702255249023,0
0.6703708648681640,0.4827844619750976,0
0.6816524505615235,0.4827844619750976,0
0.6715169906616211,0.4884389877319336,0
0.6687955856323242,0.4884389877319336,0
0.6700092315673828,0.4827095031738281,0
0.6769884109497070,0.4827095031738281,0
0.6723529815673828,0.4943750381469726,0
0.6626621246337890,0.4943750381469726,0
0.6707267761230469,0.4884550094604492,0
0.6653829574584961,0.4884550094604492,0
0.6720840454101562,0.4852495193481445,0
0.6831624984741210,0.4852495193481445,0
0.6729600906372070,0.4902883529663086,0
0.6701116561889648,0.4902883529663086,0
0.6710266113281250,0.4842784881591797,0
0.6775634765624999,0.4842784881591797,0
0.6731357574462891,0.4953157424926757,0
0.6634191513061524,0.4953157424926757,0
0.6717195510864258,0.4894432067871093,0
0.6661708831787109,0.4894432067871093,0
0.6724010467529297,0.4863882064819336,0
0.6831996917724609,0.4863882064819336,0
0.6731666564941406,0.4908891677856445,0
0.6703296661376953,0.4908891677856445,0
0.6713676452636719,0.4852254867553711,0
0.6777774810791015,0.4852254867553711,0
0.6738767623901367,0.4958988189697265,0
0.6644760131835937,0.4958988189697265,0
0.6733675003051758,0.4908588409423828,0
0.6678606033325195,0.4908588409423828,0
0.6739419937133789,0.4881385803222656,0
0.6850507736206054,0.4881385803222656,0
0.6750480651855468,0.4929130554199219,0
0.6721899032592773,0.4929130554199219,0
0.6729578018188477,0.4868883132934570,0
0.6790826797485351,0.4868883132934570,0
0.6755899429321289,0.4975845336914062,0
0.6696825027465820,0.4975845336914062,0
0.6757461547851562,0.4929027557373047,0
0.6700469970703125,0.4929027557373047,0
0.6757175445556640,0.4902791976928711,0
0.6867788314819335,0.4902791976928711,0
0.6768127441406250,0.4947378158569335,0
0.6740243911743163,0.4947378158569335,0
0.6744884490966797,0.4893293380737305,0
0.6805538177490235,0.4893293380737305,0
0.6772384643554688,0.4991918563842773,0
0.6679418563842773,0.4991918563842773,0
0.6776704788208008,0.4945890426635742,0
0.6717584609985351,0.4945890426635742,0
0.6770193099975585,0.4917818069458008,0
0.6878465652465821,0.4917818069458008,0
0.6777597427368164,0.4954914093017578,0
0.6745943069458008,0.4954914093017578,0
0.6747087478637696,0.4892326354980469,0
0.6803031921386719,0.4892326354980469,0
0.6768281936645507,0.4978065490722656,0
0.6672952651977538,0.4978065490722656,0
0.6770193099975585,0.4924970626831054,0
0.6706901550292969,0.4924970626831054,0
0.6752574920654296,0.4891679763793945,0
0.6858678817749023,0.4891679763793945,0
0.6758176803588867,0.4922018051147461,0
0.6725898742675781,0.4922018051147461,0
0.6725721359252930,0.4862108230590820,0
0.6781339645385742,0.4862108230590820,0
0.6752689361572265,0.4946903228759765,0
0.6660427093505860,0.4946903228759765,0
0.6763435363769531,0.4903141021728515,0
0.6701803207397461,0.4903141021728515,0
0.6746824264526367,0.4878879547119140,0
0.6855554580688477,0.4878879547119140,0
0.6756923675537109,0.4915134429931640,0
0.6727695465087891,0.4915134429931640,0
0.6727489471435547,0.4861633300781250,0
0.6784858703613281,0.4861633300781250,0
0.6760534286499024,0.4949466705322265,0
0.6669713973999023,0.4949466705322265,0
0.6779720306396484,0.4913955688476562,0
0.6718156814575195,0.4913955688476562,0
0.6759950637817382,0.4894821166992187,0
0.6868869781494140,0.4894821166992187,0
0.6771949768066406,0.4932861328125000,0
0.6743133544921874,0.4932861328125000,0
0.6742052078247071,0.4884910583496094,0
0.6800199508666992,0.4884910583496094,0
0.6779010772705077,0.4973470687866210,0
0.6690731048583984,0.4973470687866210,0
0.6804027557373047,0.4941518783569336,0
0.6742012023925781,0.4941518783569336,0
0.6781694412231445,0.4924856185913086,0
0.6890705108642577,0.4924856185913086,0
0.6794282913208007,0.4961643218994141,0
0.6879632949829101,0.4961643218994141,0
0.6762725830078125,0.4912754058837890,0
0.6818487167358398,0.4912754058837890,0
0.6799215316772461,0.4995758056640625,0
0.6708892822265625,0.4995758056640625,0
0.6762044906616210,0.4965047836303711,0
0.6806974411010742,0.4965047836303711,0
0.6796777725219726,0.4945753097534180,0
0.6904111862182617,0.4945753097534180,0
0.6806276321411132,0.4976360321044921,0
0.6775726318359375,0.4976360321044921,0
0.6822601318359375,0.4923208236694336,0
0.6790952682495117,0.4923208236694336,0
0.6802162170410156,0.4997812271118164,0
0.6707994461059570,0.4997812271118164,0
0.6827333450317382,0.4965425491333008,0
0.6759687423706054,0.4965425491333008,0
0.6789745330810547,0.4943023681640625,0
0.6894773483276367,0.4943023681640625,0
0.6795804977416992,0.4970546722412109,0
0.6763801574707031,0.4970546722412109,0
0.6755504608154297,0.4917171478271484,0
0.6809091567993164,0.4917171478271484,0
0.6789985656738281,0.4986637115478516,0
0.6697099685668945,0.4986637115478516,0
0.6820037841796874,0.4959108352661132,0
0.6751642227172852,0.4959108352661132,0
0.6780035018920898,0.4938674926757812,0
0.6884067535400390,0.4938674926757812,0
0.6785253524780274,0.4964412689208984,0
0.6751876831054687,0.4964412689208984,0
0.6740015029907226,0.4911449432373047,0
0.6792634963989258,0.4911449432373047,0
0.6775125503540039,0.4975685119628906,0
0.6681072235107421,0.4975685119628906,0
0.6807415008544921,0.4950891494750976,0
0.6774318695068359,0.4920570373535156,0
0.6774318695068359,0.4964252471923828,0
0.6708921432495117,0.5015493392944336,0
0.6851657867431641,0.4913881301879883,0
0.6825096130371093,0.4913881301879883,0
0.6750017166137695,0.4946313858032226,0
0.6733251571655273,0.4946313858032226,0
0.6698415756225585,0.4880195617675781,0
0.6870969772338867,0.4880195617675781,0
0.6762216567993163,0.4955949783325195,0
0.6649612426757813,0.4955949783325195,0
0.6692796707153320,0.4994676589965820,0
0.6700166702270508,0.4994676589965820,0
0.6830944061279297,0.4887125015258789,0
0.6801589965820313,0.4887125015258789,0
0.6722105026245117,0.4911203384399414,0
0.6701442718505859,0.4911203384399414,0
0.6662281036376952,0.4834150314331054,0
0.6831527709960937,0.4834150314331054,0
0.6719146728515625,0.4906402587890625,0
0.6701591491699218,0.4906402587890625,0
0.6647907257080078,0.4935876846313476,0
0.6654109954833984,0.4935876846313476,0
0.6784297943115234,0.4829835891723633,0
0.6755258560180664,0.4829835891723633,0
0.6677604675292969,0.4861341476440429,0
0.6660953521728515,0.4861341476440429,0
0.6626300811767578,0.4792356491088867,0
0.6801355361938476,0.4792356491088867,0
0.6692430496215820,0.4876825332641601,0
0.6583557128906250,0.4876825332641601,0
0.6629076004028320,0.4910940170288086,0
0.6637384414672851,0.4910940170288086,0
0.6773454666137695,0.4815765380859375,0
0.6748460769653321,0.4815765380859375,0
0.6673107147216797,0.4855070114135742,0
0.6659797668457031,0.4855070114135742,0
0.6626049041748047,0.4793289184570312,0
0.6803031921386719,0.4793289184570312,0
0.6695165634155273,0.4884086608886719,0
0.6588935852050781,0.4884086608886719,0
0.6634151458740234,0.4916061401367187,0
0.6643175125122071,0.4916061401367187,0
0.6782375335693359,0.4825904846191406,0
0.6758388519287110,0.4825904846191406,0
0.6684122085571289,0.4871515274047851,0
0.6671447753906250,0.4871515274047851,0
0.6639644622802734,0.4811479568481445,0
0.6817182540893555,0.4811479568481445,0
0.6709156036376953,0.4906139373779297,0
0.6603309631347656,0.4906139373779297,0
0.6647323608398438,0.4932037353515625,0
0.6655134201049805,0.4932037353515625,0
0.6794860839843749,0.4843345642089844,0
0.6770484924316406,0.4843345642089844,0
0.6695566177368164,0.4887256622314453,0
0.6682542800903321,0.4887256622314453,0
0.6649641036987305,0.4825384140014648,0
0.6827693939208984,0.4825384140014648,0
0.6717990875244141,0.4920129776000977,0
0.6610691070556640,0.4920129776000977,0
0.6654190063476563,0.4937490463256836,0
0.6660718917846680,0.4937490463256836,0
0.6801052093505859,0.4848758697509765,0
0.6776149749755859,0.4848758697509765,0
0.6700899124145507,0.4892366409301758,0
0.6686771392822265,0.4892366409301758,0
0.6653411865234374,0.4830150604248047,0
0.6832151412963867,0.4830150604248047,0
0.6722305297851562,0.4926607131958007,0
0.6616161346435546,0.4926607131958007,0
0.6659145355224609,0.4937593460083007,0
0.6663848876953125,0.4937593460083007,0
0.6805727005004882,0.4851436614990234,0
0.6780961990356446,0.4851436614990234,0
0.6706214904785156,0.4895902633666992,0
0.6691675186157227,0.4895902633666992,0
0.6657474517822265,0.4833692550659179,0
0.6835590362548828,0.4833692550659179,0
0.6725709915161132,0.4932500839233398,0
0.6618432998657227,0.4932500839233398,0
0.6661279678344726,0.4938938140869140,0
0.6665290832519531,0.4938938140869140,0
0.6807094573974609,0.4854549407958984,0
0.6784166336059571,0.4854549407958984,0
0.6711879730224609,0.4901927947998047,0
0.6696418762207031,0.4901927947998047,0
0.6664638519287109,0.4842687606811523,0
0.6843246459960938,0.4842687606811523,0
0.6735425949096679,0.4944396972656250,0
0.6627639770507813,0.4944396972656250,0
0.6670492172241210,0.4945798873901367,0
0.6673547744750976,0.4945798873901367,0
0.6816089630126952,0.4863945007324219,0
0.6792709350585937,0.4863945007324219,0
0.6718883514404297,0.4910007476806640,0
0.6701900482177734,0.4910007476806640,0
0.6667928695678711,0.4844696044921875,0
0.6844465255737304,0.4844696044921875,0
0.6731254577636718,0.4940780639648437,0
0.6620315551757813,0.4940780639648437,0
0.6660163879394531,0.4924907684326172,0
0.6658515930175781,0.4924907684326172,0
0.6796852111816406,0.4837154388427734,0
0.6771903991699219,0.4837154388427734,0
0.6696847915649414,0.4876224517822265,0
0.6677667617797851,0.4876224517822265,0
0.6642911911010742,0.4808132171630859,0
0.6818824768066406,0.4808132171630859,0
0.6707410812377930,0.4904342651367187,0
0.6595870971679687,0.4904342651367187,0
0.6638071060180664,0.4886106491088867,0
0.6636348724365234,0.4886106491088867,0
0.6776773452758789,0.4805522918701172,0
0.6754926681518555,0.4805522918701172,0
0.6683155059814453,0.4852838516235352,0
0.6666709899902343,0.4852838516235352,0
0.6635095596313476,0.4792459487915039,0
0.6813949584960938,0.4792459487915039,0
0.6703290939331055,0.4898185729980469,0
0.6594228744506836,0.4898185729980469,0
0.6637624740600586,0.4880624771118164,0
0.6635250091552735,0.4880624771118164,0
0.6778484344482422,0.4806959152221679,0
0.6757610321044921,0.4806959152221679,0
0.6689266204833985,0.4858514785766601,0
0.6671579360961913,0.4858514785766601,0
0.6641704559326171,0.4800905227661132,0
0.6820627212524414,0.4800905227661132,0
0.6710815429687500,0.4910545349121094,0
0.6601552963256836,0.4910545349121094,0
0.6646814346313477,0.4891445159912109,0
0.6644519805908203,0.4891445159912109,0
0.6786684036254883,0.4822259902954101,0
0.6769226074218749,0.4822259902954101,0
0.6701723098754883,0.4874879837036132,0
0.6683429718017578,0.4874879837036132,0
0.6654870986938476,0.4819278717041016,0
0.6831945419311524,0.4819278717041016,0
0.6722528457641601,0.4930824279785156,0
0.6612110137939453,0.4930824279785156,0
0.6657159805297851,0.4904165267944336,0
0.6652994155883789,0.4904165267944336,0
0.6794191360473633,0.4835615158081055,0
0.6777471542358399,0.4835615158081055,0
0.6709053039550781,0.4886409759521484,0
0.6690038681030274,0.4886409759521484,0
0.6663127899169922,0.4829538345336914,0
0.6838291168212890,0.4829538345336914,0
0.6727151870727539,0.4941215515136719,0
0.6614753723144531,0.4941215515136719,0
0.6661222457885742,0.4907226562500000,0
0.6654825210571289,0.4907226562500000,0
0.6793882369995117,0.4838653564453125,0
0.6778238296508788,0.4838653564453125,0
0.6711994171142578,0.4889465332031250,0
0.6692333221435547,0.4889465332031250,0
0.6666315078735351,0.4831529617309570,0
0.6839595794677734,0.4831529617309570,0
0.6728857040405273,0.4947967529296875,0
0.6617414474487304,0.4947967529296875,0
0.6663539886474609,0.4905687332153320,0
0.6655305862426758,0.4905687332153320,0
0.6794202804565429,0.4838859558105468,0
0.6779834747314453,0.4838859558105468,0
0.6714757919311524,0.4890861511230469,0
0.6693803787231445,0.4890861511230469,0
0.6670320510864257,0.4832891464233398,0
0.6842319488525390,0.4832891464233398,0
0.6730916976928710,0.4954324722290039,0
0.6618747711181641,0.4954324722290039,0
0.6668191909790039,0.4906688690185547,0
0.6659946441650391,0.4906688690185547,0
0.6798397064208984,0.4846109390258789,0
0.6788978576660156,0.4846109390258789,0
0.6726562500000000,0.4902322769165039,0
0.6706924438476562,0.4902322769165039,0
0.6687520980834961,0.4849033355712891,0
0.6859560012817383,0.4849033355712891,0
0.6750864028930664,0.4975164413452148,0
0.6639364242553710,0.4975164413452148,0
0.6689317703247070,0.4922618865966797,0
0.6680316925048828,0.4922618865966797,0
0.6816947937011718,0.4860282897949219,0
0.6808794021606445,0.4860282897949219,0
0.6745765686035156,0.4912399291992187,0
0.6723844528198242,0.4912399291992187,0
0.6702713012695313,0.4850967407226562,0
0.6870666503906250,0.4850967407226562,0
0.6757976531982421,0.4968761444091797,0
0.6642225265502929,0.4968761444091797,0
0.6691371917724609,0.4903799057006836,0
0.6749599456787109,0.4895696640014648,0
0.6692911148071289,0.4990482330322266,0
0.6746057510375977,0.4764621734619141,0
0.6671670913696289,0.4880973815917968,0
0.6812313079833984,0.4879978179931641,0
0.6723094940185547,0.4862623214721680,0
0.6684207916259766,0.4931344985961914,0
0.6803609848022460,0.4778520584106445,0
0.6800222396850586,0.4817573547363281,0
0.6716709136962891,0.4874147415161132,0
0.6748580932617188,0.4873775482177734,0
0.6820238113403320,0.4877849578857422,0
0.6734436035156249,0.4921045303344727,0
0.6698347091674804,0.4863922119140625,0
0.6711135864257812,0.4883977890014648,0
0.6710655212402343,0.4865455627441406,0
0.6762903213500976,0.4889854431152343,0
0.6731294631958008,0.5000822067260742,0
0.6899591445922851,0.4900737762451172,0
0.6790163040161132,0.4975158691406250,0
0.6732828140258789,0.4912267684936523,0
0.6794248580932617,0.4916456222534180,0
0.6746749877929688,0.5029283523559570,0
0.6812072753906250,0.4814912796020507,0
0.6746652603149413,0.4930423736572265,0
0.6889537811279297,0.4940059661865234,0
0.6799942016601562,0.4990734100341797,0
0.6768756866455078,0.4926389694213867,0
0.6772670745849609,0.4950307846069336,0
0.6774782180786133,0.4941827774047851,0
0.6829616546630859,0.4957071304321289,0
0.6797956466674805,0.5064279556274414,0
0.6834125518798828,0.4961036682128906,0
0.6842405319213867,0.4929777145385742,0
0.6782415390014648,0.4899221420288086,0
0.6836328506469727,0.4948453903198242,0
0.6771623611450195,0.4947984695434570,0
0.6794689178466796,0.4890684127807617,0
0.6834411621093750,0.5021936416625976,0
0.6801183700561523,0.4993972778320312,0
0.6821451187133789,0.4942743301391601,0
0.6868057250976562,0.4848466873168945,0
0.6818189620971680,0.4938371658325195,0
0.6762033462524414,0.4938812255859375,0
0.6784738540649414,0.4886432647705078,0
0.6830320358276367,0.4917366027832031,0
0.6950254440307617,0.4924535751342773,0
0.6770977020263672,0.4942033767700195,0
0.6868314743041992,0.4889493942260742,0
0.6765192031860351,0.5054311752319336,0
0.6824804306030273,0.4944293975830078,0
0.6787817001342773,0.4944293975830078,0
0.6825662612915039,0.4947681427001953,0
0.6825662612915039,0.5023555755615234,0
0.6758691787719726,0.4927820205688476,0
0.6805469512939453,0.4899604797363281,0
0.6736421585083008,0.4923551559448242,0
0.6788572311401367,0.4923551559448242,0
0.6749662399291992,0.4902517318725585,0
0.6749662399291992,0.4846138000488281,0
0.6661319732666016,0.4976509094238281,0
0.6748414993286133,0.4866394042968750,0
0.6772098541259766,0.4886707305908203,0
0.6812009811401367,0.4886707305908203,0
0.6769323348999023,0.4830682754516601,0
0.6742406845092773,0.4884956359863281,0
0.6893028259277344,0.4825504302978516,0
0.6844476699829102,0.4883359909057617,0
0.6749490737915039,0.4854131698608398,0
0.6726316452026367,0.4854131698608398,0
0.6816942214965820,0.4883239746093750,0
0.6816942214965820,0.4823638916015625,0
0.6751876831054687,0.4886901855468750,0
0.6787370681762696,0.4879486083984375,0
0.6794706344604492,0.4972669601440429,0
0.6722785949707031,0.4894369125366211,0
0.6807746887207031,0.4897132873535156,0
0.6878911972045898,0.4909446716308594,0
0.6816106796264648,0.4882123947143555,0
0.6766027450561524,0.4939670562744141,0
0.6739002227783203,0.4905641555786133,0
0.6881704330444336,0.4862262725830078,0
0.6758153915405273,0.4946554183959961,0
0.6835241317749023,0.4925125122070312,0
0.6804027557373047,0.5036476135253906,0
0.6844270706176757,0.4909172058105469,0
0.6726991653442382,0.5024185180664062,0
0.6767881393432617,0.4931894302368164,0
0.6844282150268555,0.4946119308471679,0
0.6787382125854492,0.5060657501220703,0
0.6853139877319335,0.4845680236816406,0
0.6818727493286133,0.4948877334594726,0
0.6852807998657227,0.4960561752319336,0
0.6872760772705078,0.5046821594238281,0
0.6824283599853516,0.4952041625976562,0
0.6872165679931640,0.4935710906982422,0
0.6811397552490234,0.5079946517944336,0
0.6869115829467773,0.4997674942016601,0
0.6889600753784180,0.4965871810913086,0
0.6857843399047852,0.4976726531982422,0
0.6893697738647461,0.4946542739868164,0
0.6844053268432617,0.4997303009033203,0
0.6844053268432617,0.4967857360839844,0
0.6961149215698242,0.4922882080078125,0
0.6831327438354492,0.5019355773925781,0
0.6914691925048828,0.4885128021240234,0
0.7032085418701172,0.4936849594116210,0
0.6980649948120117,0.4999477386474609,0
0.6879787445068359,0.4966220855712891,0
0.6870992660522460,0.5019727706909179,0
0.6945917129516601,0.4919609069824218,0
0.6988861083984375,0.4947486877441406,0
0.6897634506225586,0.5016672134399414,0
0.6940292358398438,0.5006155014038086,0
0.6999601364135742,0.5012672424316406,0
0.6936521530151367,0.4977727890014648,0
0.6881475448608398,0.5013679504394531,0
0.6845380783081054,0.4987689971923828,0
0.6987007141113281,0.4932277679443359,0
0.6852682113647460,0.5029174804687500,0
0.6933259963989258,0.4978294372558594,0
0.6896455764770507,0.5084907531738281,0
0.6923664093017577,0.4947315216064453,0
0.6802757263183593,0.5066425323486328,0
0.6836025238037109,0.4960487365722656,0
0.6915527343750000,0.4975004196166992,0
0.6849088668823242,0.5090309143066406,0
0.6937997817993163,0.4979970932006836,0
0.6937997817993163,0.4969442367553711,0
0.6991498947143554,0.4981790542602539,0
0.6934307098388671,0.4951126098632812,0
0.6889606475830078,0.4995334625244141,0
0.6855789184570312,0.4971033096313476,0
0.6872777938842773,0.5108654022216796,0
0.6929935455322266,0.5036699295043945,0
0.6926645278930664,0.4991266250610351,0
0.6930799484252930,0.4943407058715820,0
0.6963649749755859,0.5096254348754883,0
0.6919269561767578,0.5096254348754883,0
0.6965892791748046,0.4986682891845703,0
0.6870340347290039,0.5017026901245117,0
0.6962110519409179,0.5069240570068360,0
0.6962739944458007,0.5023590087890625,0
0.6965177536010742,0.4976274490356445,0
0.6998891830444336,0.5129613876342773,0
0.6956388473510742,0.5030467987060546,0
0.7001873016357422,0.5017782211303711,0
0.6937379837036133,0.5170640945434570,0
0.6937379837036133,0.5100997924804688,0
0.7033779144287109,0.5050615310668946,0
0.6993106842041016,0.5050615310668946,0
0.7072465896606445,0.5063152313232422,0
0.7023593902587890,0.5063152313232422,0
0.6974412918090820,0.5021083831787109,0
0.7142572402954102,0.5021083831787109,0
0.7020898818969726,0.5066648483276367,0
0.6920219421386719,0.5066648483276367,0
0.6954591751098632,0.5119377136230469,0
0.7009963989257812,0.5119377136230469,0
0.7052627563476562,0.5064765930175781,0
0.7012178421020507,0.5064765930175781,0
0.7086198806762695,0.5077033996582031,0
0.7011795043945312,0.5077033996582031,0
0.6987985610961914,0.5032665252685546,0
0.7156969070434570,0.5032665252685546,0
0.7034448623657227,0.5078573226928711,0
0.6930959701538085,0.5078573226928711,0
0.6967323303222656,0.5132337570190429,0
0.7021076202392578,0.5132337570190429,0
0.7066829681396484,0.5075471878051757,0
0.7026483535766601,0.5075471878051757,0
0.7093969345092773,0.5087757110595703,0
0.7023988723754883,0.5087757110595703,0
0.6998800277709961,0.5042455673217773,0
0.7168584823608398,0.5042455673217773,0
0.7047746658325195,0.5090881347656250,0
0.6942020416259765,0.5090881347656250,0
0.6980884552001952,0.5146562576293945,0
0.7033687591552734,0.5146562576293945,0
0.7083475112915039,0.5087385177612305,0
0.7044107437133789,0.5087385177612305,0
0.7105705261230468,0.5099578857421875,0
0.7036588668823242,0.5099578857421875,0
0.7010976791381835,0.5052091598510742,0
0.7179393768310547,0.5052091598510742,0
0.7057846069335937,0.5097187042236327,0
0.6948732376098633,0.5097187042236327,0
0.6986738204956054,0.5147832870483399,0
0.7034580230712890,0.5147832870483399,0
0.7083274841308593,0.5078527450561523,0
0.7042367935180663,0.5078527450561523,0
0.7093872070312500,0.5078750610351562,0
0.7023073196411133,0.5078750610351562,0
0.6991579055786132,0.5020431518554688,0
0.7157289505004882,0.5020431518554688,0
0.7034477233886719,0.5055999755859375,0
0.6921146392822265,0.5055999755859375,0
0.6959289550781250,0.5104763031005859,0
0.7005575180053710,0.5104763031005859,0
0.7058486938476562,0.5031011581420898,0
0.7019239425659179,0.5031011581420898,0
0.7065633773803711,0.5036716461181641,0
0.6997896194458008,0.5036716461181641,0
0.6967929840087891,0.4984966278076172,0
0.7136507034301758,0.4984966278076172,0
0.7016246795654296,0.5030662536621093,0
0.6904243469238281,0.5030662536621093,0
0.6948148727416992,0.5088735580444336,0
0.6995853424072266,0.5088735580444336,0
0.7054121017456054,0.5020774841308594,0
0.7018592834472656,0.5020774841308594,0
0.7060930252075195,0.5033420562744141,0
0.6997610092163086,0.5033420562744141,0
0.6969635009765625,0.4985578536987305,0
0.7140174865722656,0.4985578536987305,0
0.7022134780883789,0.5036739349365235,0
0.6910057067871094,0.5036739349365235,0
0.6956085205078125,0.5099029541015625,0
0.7003749847412110,0.5099029541015625,0
0.7066280364990234,0.5032367706298828,0
0.7031536102294922,0.5032367706298828,0
0.7070652008056640,0.5049001693725585,0
0.7010570526123047,0.5049001693725585,0
0.6982355117797852,0.5004695892333985,0
0.7153398513793945,0.5004695892333985,0
0.6924036026000976,0.5056869506835937,0
0.7047718048095702,0.5056869506835937,0
0.6972158432006835,0.5121019363403320,0
0.7019016265869140,0.5121019363403320,0
0.7084293365478516,0.5053007125854492,0
0.7051340103149414,0.5053007125854492,0
0.7084064483642578,0.5068943023681640,0
0.7025808334350586,0.5068943023681640,0
0.6997913360595703,0.5021490097045899,0
0.7168573379516602,0.5021490097045899,0
0.7052570343017578,0.5073469161987304,0
0.6937253952026367,0.5073469161987304,0
0.6987888336181640,0.5136325836181640,0
0.7059968948364258,0.5057899475097656,0
0.7099605560302734,0.5065149307250977,0
0.7045858383178710,0.5065149307250977,0
0.7092201232910156,0.5079654693603516,0
0.7036159515380859,0.5079654693603516,0
0.7005918502807617,0.5028894424438476,0
0.7175600051879882,0.5028894424438476,0
0.7059293746948242,0.5079483032226563,0
0.6942037582397461,0.5079483032226563,0
0.6992815017700195,0.5142282485961914,0
0.7034786224365234,0.5142282485961914,0
0.7104858398437500,0.5067100524902344,0
0.7069181442260742,0.5067100524902344,0
0.7091262817382812,0.5081096649169922,0
0.7036394119262696,0.5081096649169922,0
0.7005981445312500,0.5031126022338867,0
0.7175050735473633,0.5031126022338867,0
0.7060701370239257,0.5081760406494140,0
0.6943233489990234,0.5081760406494140,0
0.6995315551757812,0.5145830154418946,0
0.7036371231079102,0.5145830154418946,0
0.7109584808349609,0.5071374893188476,0
0.7075561523437500,0.5071374893188476,0
0.7092630386352539,0.5086297988891602,0
0.7040456771850586,0.5086297988891602,0
0.7011949539184570,0.5037265777587890,0
0.7181293487548828,0.5037265777587890,0
0.7068700790405273,0.5089433670043945,0
0.6949087142944336,0.5089433670043945,0
0.7003698348999023,0.5154659271240234,0
0.7042379379272461,0.5154659271240234,0
0.7117618560791016,0.5077211380004882,0
0.7082977294921875,0.5077211380004882,0
0.7094203948974609,0.5089296340942383,0
0.7042173385620117,0.5089296340942383,0
0.7010599136352539,0.5032705307006836,0
0.7021963119506835,0.5032705307006836,0
0.7059722900390625,0.5074779510498046,0
0.6936899185180664,0.5074779510498046,0
0.6988775253295898,0.5129264831542969,0
0.7022197723388671,0.5129264831542969,0
0.7096149444580078,0.5039485931396485,0
0.7058601379394531,0.5039485931396485,0
0.7063024520874023,0.5043743133544921,0
0.7011440277099609,0.5043743133544921,0
0.6979476928710937,0.4982620239257812,0
0.7143751144409179,0.4982620239257812,0
0.7028234481811523,0.5025815963745117,0
0.6904397964477539,0.5025815963745117,0
0.6959037780761719,0.5084123611450195,0
0.6992345809936523,0.5084123611450195,0
0.7071659088134765,0.4999116897583007,0
0.7037080764770508,0.4999116897583007,0
0.7037612915039062,0.5012729644775390,0
0.6989736557006836,0.5012729644775390,0
0.6959095001220703,0.4958061218261718,0
0.7124502182006835,0.4958061218261718,0
0.7013380050659179,0.5009290695190429,0
0.6893056869506836,0.5009290695190429,0
0.6951129913330077,0.5077159881591796,0
0.6987218856811523,0.5077159881591796,0
0.7074159622192383,0.4999059677124023,0
0.7044342041015624,0.4999059677124023,0
0.7041973114013672,0.5019098281860351,0
0.6998914718627930,0.5019098281860351,0
0.6971614837646484,0.4971164703369140,0
0.7139041900634765,0.4971164703369140,0
0.7029235839843749,0.5025529861450195,0
0.6907487869262695,0.5025529861450195,0
0.6966630935668945,0.5095218658447266,0
0.6998313903808594,0.5095218658447266,0
0.7086233139038086,0.5012947082519531,0
0.7053325653076171,0.5012947082519531,0
0.7042201995849610,0.5030759811401367,0
0.6998102188110351,0.5030759811401367,0
0.6967781066894531,0.4979272842407226,0
0.7132896423339844,0.4979272842407226,0
0.7023330688476562,0.5032699584960937,0
0.6902818679809570,0.5032699584960937,0
0.6963518142700195,0.5103693008422852,0
0.6997844696044921,0.5103693008422852,0
0.7094358444213867,0.5024877548217773,0
0.7066732406616211,0.5024877548217773,0
0.7053915023803711,0.5047302246093750,0
0.7016349792480469,0.5047302246093750,0
0.6988849639892578,0.4998985290527344,0
0.7157203674316406,0.4998985290527344,0
0.7050373077392578,0.5054574966430664,0
0.6929861068725586,0.5054574966430664,0
0.6989662170410156,0.5122381210327148,0
0.7019399642944336,0.5122381210327148,0
0.7115118026733398,0.5036590576171874,0
0.7083166122436523,0.5036590576171874,0
0.7061067581176758,0.5052715301513672,0
0.7021327972412109,0.5052715301513672,0
0.6990737915039062,0.4999889373779297,0
0.7155841827392578,0.4999889373779297,0
0.7049160003662109,0.5053842544555663,0
0.6929340362548828,0.5053842544555663,0
0.6991378784179687,0.5123691558837891,0
0.7024274826049804,0.5123691558837891,0
0.7126516342163086,0.5042930603027344,0
0.7098318099975586,0.5042930603027344,0
0.7077598571777344,0.5065876007080078,0
0.7074113845825195,0.5133544921875000,0
0.7016944885253906,0.5064302444458008,0
0.7080894470214844,0.5003093719482422,0
0.7083326339721679,0.5027355194091797,0
0.7090318679809570,0.5088523864746094,0
0.7061771392822266,0.5088523864746094,0
0.7076162338256836,0.5025718688964843,0
0.7155092239379882,0.5025718688964843,0
0.7097208023071289,0.5154401779174804,0
0.7037584304809570,0.5154401779174804,0
0.7067962646484375,0.5086566925048828,0
0.7020172119140625,0.5086566925048828,0
0.7102729797363281,0.5050266265869140,0
0.7210493087768555,0.5050266265869140,0
0.7109533309936523,0.5106782913208008,0
0.7080076217651367,0.5106782913208008,0
0.7093975067138671,0.5039165496826171,0
0.7168607711791992,0.5039165496826171,0
0.7108440399169922,0.5156581878662109,0
0.7003944396972656,0.5156581878662109,0
0.7074165344238281,0.5078887939453125,0
0.7021081924438476,0.5078887939453125,0
0.7097082138061523,0.5032081604003906,0
0.7196588516235352,0.5032081604003906,0
0.7093460083007812,0.5075723648071289,0
0.7052947998046875,0.5075723648071289,0
0.7055402755737304,0.4999740600585937,0
0.7131042480468750,0.4999740600585937,0
0.7077959060668945,0.5114273071289063,0
0.6978075027465820,0.5114273071289063,0
0.7051465988159179,0.5046655654907226,0
0.6998697280883789,0.5046655654907226,0
0.7070720672607421,0.5006309509277344,0
0.7171932220458984,0.5006309509277344,0
0.7071241378784180,0.5052772521972656,0
0.7040588378906250,0.5052772521972656,0
0.7052049636840820,0.4988605499267578,0
0.7123683929443360,0.4988605499267578,0
0.7070148468017577,0.5103612899780273,0
0.6970155715942382,0.5103612899780273,0
0.7046648025512695,0.5040355682373047,0
0.6994874954223632,0.5040355682373047,0
0.7065479278564453,0.5005983352661133,0
0.7170467376708984,0.5005983352661133,0
0.7070657730102539,0.5057962417602538,0
0.7042356491088867,0.5057962417602538,0
0.7053743362426758,0.4998229980468750,0
0.7125377655029297,0.4998229980468750,0
0.7076574325561523,0.5115194320678711,0
0.6979797363281249,0.5115194320678711,0
0.7061376571655273,0.5059026718139649,0
0.7011262893676757,0.5059026718139649,0
0.7081066131591797,0.5029495239257812,0
0.7188451766967773,0.5029495239257812,0
0.7090124130249024,0.5082527160644531,0
0.7061656951904297,0.5082527160644531,0
0.7073284149169922,0.5025140762329101,0
0.7143007278442383,0.5025140762329101,0
0.7096836090087890,0.5139461517333984,0
0.6999034881591797,0.5139461517333984,0
0.7082239151000976,0.5083465576171875,0
0.7028984069824219,0.5083465576171875,0
0.7096012115478515,0.5053676605224610,0
0.7202545166015625,0.5053676605224610,0
0.7102329254150390,0.5102371215820313,0
0.7071819305419922,0.5102371215820313,0
0.7080636978149414,0.5041723251342773,0
0.7148672103881836,0.5041723251342773,0
0.7102632522583008,0.5148519515991211,0
0.7004482269287109,0.5148519515991211,0
0.7089735031127929,0.5092329025268555,0
0.7034345626831054,0.5092329025268555,0
0.7098289489746094,0.5060926437377929,0
0.7204004287719726,0.5060926437377929,0
0.7103679656982421,0.5106147766113281,0
0.7073284149169922,0.5106147766113281,0
0.7080699920654296,0.5045740127563476,0
0.7147029876708985,0.5045740127563476,0
0.7103216171264648,0.5151609420776367,0
0.7005792617797851,0.5151609420776367,0
0.7094839096069335,0.5096906661987305,0
0.7039220809936523,0.5096906661987305,0
0.7099983215332031,0.5067632675170898,0
0.7207391738891601,0.5067632675170898,0
0.7107210159301758,0.5113031387329101,0
0.7077695846557617,0.5113031387329101,0
0.7084796905517577,0.5053716659545898,0
0.7149936676025390,0.5053716659545898,0
0.7109292984008789,0.5157840728759765,0
0.7012899398803710,0.5157840728759765,0
0.7104434967041016,0.5107160568237304,0
0.7048965454101562,0.5107160568237304,0
0.7108503341674804,0.5080078124999999,0
0.7216712951660156,0.5080078124999999,0
0.7117904663085938,0.5125173568725586,0
0.7088928222656250,0.5125173568725586,0
0.7094152450561523,0.5066883087158203,0
0.7159206390380859,0.5066883087158203,0
0.7120285034179688,0.5168266296386719,0
0.7024023056030273,0.5168266296386719,0
0.7117853164672852,0.5118038177490234,0
0.7121875762939452,0.5118038177490234,0
0.7114780426025390,0.5087522506713867,0
0.7221015930175781,0.5087522506713867,0
0.7119352340698242,0.5124670028686523,0
0.7085483551025390,0.5124670028686523,0
0.7088075637817383,0.5058317184448242,0
0.7148906707763671,0.5058317184448242,0
0.7108634948730469,0.5146574020385742,0
0.7008848190307617,0.5146574020385742,0
0.7102621078491210,0.5089147567749023,0
0.7040319442749023,0.5089147567749023,0
0.7090215682983398,0.5051994323730469,0
0.7194139480590820,0.5051994323730469,0
0.7090896606445313,0.5082441329956054,0
0.7057519912719726,0.5082441329956054,0
0.7057525634765625,0.5018102645874023,0
0.7118179321289062,0.5018102645874023,0
0.7081672668457031,0.5108030319213867,0
0.6984506607055664,0.5108030319213867,0
0.7082960128784179,0.5059078216552734,0
0.7023536682128906,0.5059078216552734,0
0.7074554443359374,0.5031938552856445,0
0.7181402206420898,0.5031938552856445,0
0.7081832885742188,0.5070722579956054,0
0.7051334381103516,0.5070722579956054,0
0.7051980972290038,0.5014783859252929,0
0.7115312576293945,0.5014783859252929,0
0.7082250595092773,0.5110113143920898,0
0.6987773895263671,0.5110113143920898,0
0.7090530395507812,0.5069520950317382,0
0.7031547546386718,0.5069520950317382,0
0.7081569671630860,0.5046426773071289,0
0.7190425872802734,0.5046426773071289,0
0.7091611862182617,0.5087671279907227,0
0.7061599731445313,0.5087671279907227,0
0.7063510894775390,0.5036161422729492,0
0.7127254486083984,0.5036161422729492,0
0.7097276687622071,0.5132423400878906,0
0.7002777099609375,0.5132423400878906,0
0.7109167098999023,0.5093439102172851,0
0.7050498962402344,0.5093439102172851,0
0.7098340988159180,0.5072525024414062,0
0.7207614898681640,0.5072525024414062,0
0.7107925415039062,0.5111492156982421,0
0.7078210830688476,0.5111492156982421,0
0.7077260971069336,0.5057973861694336,0
0.7140632629394531,0.5057973861694336,0
0.7112045288085938,0.5150304794311523,0
0.7017271041870117,0.5150304794311523,0
0.7126012802124023,0.5111852645874023,0
0.7064128875732422,0.5111852645874023,0
0.7109945297241210,0.5089004516601562,0
0.7218355178833008,0.5089004516601562,0
0.7117092132568359,0.5125310897827148,0
0.7086530685424804,0.5125310897827148,0
0.7084430694580078,0.5068988800048828,0
0.7146257400512696,0.5068988800048828,0
0.7118036270141601,0.5157451629638672,0
0.7022346496582031,0.5157451629638672,0
0.7133090972900390,0.5116991043090821,0
0.7069753646850586,0.5116991043090821,0
0.7112239837646485,0.5093702316284180,0
0.7219980239868163,0.5093702316284180,0
0.7119775772094726,0.5126541137695312,0
0.7087829589843749,0.5126541137695312,0
0.7084825515747070,0.5070705413818359,0
0.7145473480224609,0.5070705413818359,0
0.7119031906127929,0.5157096862792968,0
0.7022993087768554,0.5157096862792968,0
0.7136369705200195,0.5118347167968750,0
0.7071355819702149,0.5118347167968750,0
0.7111913681030273,0.5095779418945312,0
0.7219905853271484,0.5095779418945312,0
0.7118825912475586,0.5128360748291015,0
0.7086879730224609,0.5128360748291015,0
0.7083183288574219,0.5073348999023437,0
0.7143505096435546,0.5073348999023437,0
0.7118740081787109,0.5159557342529296,0
0.7022357940673828,0.5159557342529296,0
0.7140792846679688,0.5122444152832031,0
0.7074428558349609,0.5122444152832031,0
0.7113264083862304,0.5101467132568359,0
0.7222560882568360,0.5101467132568359,0
0.7121315002441406,0.5133104324340820,0
0.7089363098144531,0.5133104324340820,0
0.7084150314331055,0.5078641891479492,0
0.7145130157470703,0.5078641891479492,0
0.7121355056762695,0.5161645889282226,0
0.7024835586547852,0.5161645889282226,0
0.7144958496093750,0.5123880386352538,0
0.7077552795410156,0.5123880386352538,0
0.7113979339599609,0.5099945068359375,0
0.7219116210937500,0.5099945068359375,0
0.7118408203125000,0.5125093460083008,0
0.7084081649780273,0.5125093460083008,0
0.7075080871582031,0.5063615798950195,0
0.7132656097412109,0.5063615798950195,0
0.7107324600219727,0.5135559082031250,0
0.7007566452026367,0.5135559082031250,0
0.7127105712890625,0.5094085693359375,0
0.7057268142700195,0.5094085693359375,0
0.7090261459350585,0.5064720153808594,0
0.7193801879882812,0.5064720153808594,0
0.7092475891113281,0.5087928771972656,0
0.7057737350463867,0.5087928771972656,0
0.7048370361328125,0.5029048919677734,0
0.7106884002685546,0.5029048919677734,0
0.7085523605346680,0.5103120803833008,0
0.6987562179565430,0.5103120803833008,0
0.7112205505371093,0.5070940017700195,0
0.7044977188110352,0.5070940017700195,0
0.7078571319580078,0.5051124572753906,0
0.7185802459716797,0.5051124572753906,0
0.7086393356323242,0.5079837799072265,0
0.7054773330688476,0.5079837799072265,0
0.7047037124633789,0.5028047561645508,0
0.7107913970947265,0.5028047561645508,0
0.7088407516479492,0.5103881835937499,0
0.6993467330932617,0.5103881835937499,0
0.7120388031005859,0.5078596115112305,0
0.7053543090820312,0.5078596115112305,0
0.7086936950683593,0.5062397003173827,0
0.7195169448852539,0.5062397003173827,0
0.7096773147583008,0.5093467712402343,0
0.7065668106079102,0.5093467712402343,0
0.7056913375854492,0.5043760299682617,0
0.7118019104003906,0.5043760299682617,0
0.7101224899291992,0.5116945266723633,0
0.7006874084472656,0.5116945266723633,0
0.7136301040649414,0.5094257354736328,0
0.7109836578369141,0.5110576629638671,0
0.7046979904174805,0.5222196578979492,0
0.7078113555908203,0.5108356475830078,0
0.7196359634399414,0.5068885803222656,0
0.7099737167358399,0.5102903366088867,0
0.7049938201904297,0.5171419143676758,0
0.7230468750000000,0.5039588928222656,0
0.7119489669799804,0.5121196746826172,0
0.7054710388183594,0.5171081542968750,0
0.7118185043334960,0.5114576339721679,0
0.7075046539306641,0.5062986373901367,0
0.7105030059814453,0.5029352188110351,0
0.7054847717285156,0.5176076889038086,0
0.7155389785766602,0.5041946411132813,0
0.7011497497558593,0.5124830245971680,0
0.7059774398803711,0.5172843933105469,0
0.7122499465942382,0.5117568969726562,0
0.7078565597534180,0.5237726211547852,0
0.7138463973999023,0.5111108779907226,0
0.7123729705810546,0.5134489059448242,0
0.7092658996582031,0.5113729476928711,0
0.7130516052246093,0.5131324768066406,0
0.7063665390014648,0.5234539031982421,0
0.7183153152465820,0.5077531814575195,0
0.7081300735473632,0.5069623947143554,0
0.7126436233520508,0.5136983871459960,0
0.7061553955078125,0.5187154769897461,0
0.7132072448730469,0.5136629104614258,0
0.7121658325195312,0.5092935562133789,0
0.7078748703002929,0.5177576065063476,0
0.7215728759765625,0.5078298568725585,0
0.7080196380615235,0.5069738388061523,0
0.7123901367187500,0.5011419296264649,0
0.7239692687988281,0.5038455963134766,0
0.7161020278930664,0.5103641510009765,0
0.7213983535766602,0.5077108383178711,0
0.7047821044921875,0.5145704269409179,0
0.7191907882690429,0.4964458465576171,0
0.7084465026855469,0.5029569625854492,0
0.7084465026855469,0.5069017410278320,0
0.7028394699096679,0.4995037078857422,0
0.7096246719360352,0.5026908874511719,0
0.6980953216552734,0.5080690383911133,0
0.7090759277343750,0.5032688140869140,0
0.7056324005126953,0.5060508728027343,0
0.7101945877075195,0.5050958633422852,0
0.7024366378784179,0.5054082870483398,0
0.7075670242309570,0.5062431335449219,0
0.7095565795898438,0.5058517456054688,0
0.7095565795898438,0.5082000732421875,0
0.7147539138793945,0.5069360733032227,0
0.7107622146606445,0.5038953781127929,0
0.7040657043457031,0.5189821243286132,0
0.7055168151855469,0.5127187728881836,0
0.7063070297241211,0.5038833618164062,0
0.7063070297241211,0.5039182662963867,0
0.7116823196411133,0.5107595443725585,0
0.7051889419555664,0.5172540664672851,0
0.7127408981323242,0.5124269485473633,0
0.7115587234497071,0.5124269485473633,0
0.7126802444458008,0.5149372100830077,0
0.7126802444458008,0.5107326507568359,0
0.7077587127685546,0.5057945251464844,0
0.7114820480346680,0.5019659042358399,0
0.7063613891601562,0.5036436080932617,0
0.7181602478027344,0.5036436080932617,0
0.7125858306884766,0.5096557617187499,0
0.7242553710937499,0.5093605041503906,0
0.7100824356079102,0.5115480422973633,0
0.7224523544311523,0.5063856124877929,0
0.7120719909667969,0.5024688720703124,0
0.7102077484130859,0.5125808715820312,0
0.7068140029907226,0.5040658950805664,0
0.7142011642456054,0.5142940521240235,0
0.7128416061401367,0.5102680206298827,0
0.7105276107788085,0.5120138168334961,0
0.7087863922119141,0.5070848464965820,0
0.7127574920654297,0.5031686782836914,0
0.7075109481811523,0.5205728530883789,0
0.7271186828613281,0.5050191879272461,0
0.7032606124877929,0.5155231475830078,0
0.7137273788452149,0.5107824325561523,0
0.7148700714111328,0.5130626678466796,0
0.7236963272094726,0.5010601043701172,0
0.7135889053344726,0.5042850494384765,0
0.7118333816528321,0.5127696990966797,0
0.7207294464111328,0.5061475753784179,0
0.7207294464111328,0.5134117126464843,0
0.7145347595214844,0.5118072509765624,0
0.7086816787719726,0.5235603332519531,0
0.7241312026977539,0.5012838363647460,0
0.7209371566772461,0.5078739166259766,0
0.7112119674682617,0.5119302749633788,0
0.7145645141601562,0.5128526687622070,0
0.7194368362426757,0.5109060287475585,0
0.7141857147216797,0.5109060287475585,0
0.7061222076416015,0.5193952560424805,0
0.7065462112426758,0.5130060195922851,0
0.7179113388061523,0.5034210205078125,0
0.7067934036254883,0.5036527633666992,0
0.7117784500122070,0.5086624145507812,0
0.7049280166625976,0.5086624145507812,0
0.7092967987060547,0.5074499130249023,0
0.7120548248291015,0.5109369277954101,0
0.7054286956787109,0.5106330871582031,0
0.7116039276123046,0.5076318740844726,0
0.7063344955444336,0.5028985977172852,0
0.7103576660156250,0.5028985977172852,0
0.7052398681640625,0.5085508346557617,0
0.7052398681640625,0.5008129119873047,0
0.7126527786254883,0.5119297027587890,0
0.7111295700073242,0.5081760406494140,0
0.7125492095947266,0.5089279174804687,0
0.7211105346679687,0.5089279174804687,0
0.7115856170654297,0.5045133590698242,0
0.7115856170654297,0.5088918685913085,0
0.7065959930419922,0.5027618408203125,0
0.7191753387451172,0.5100780487060547,0
0.7125194549560546,0.5089977264404296,0
0.7250301361083984,0.5089977264404296,0
0.7105848312377929,0.5111606597900390,0
0.7226932525634765,0.5057653427124024,0
0.7132244110107422,0.5112859725952148,0
0.7146560668945312,0.4996438980102539,0
0.7206481933593750,0.5094108581542969,0
0.7128919601440430,0.5120693206787109,0
0.7263273239135742,0.5106542587280273,0
0.7083303451538085,0.5149950027465821,0
0.7234840393066406,0.5069664001464843,0
0.7097465515136718,0.5240077972412109,0
0.7119827270507812,0.5122272491455078,0
0.7088092803955078,0.5058351516723633,0
0.7213668823242188,0.5100894927978515,0
0.7141656875610352,0.5133350372314452,0
0.7267822265625000,0.5113546371459960,0
0.7116863250732421,0.5130340576171875,0
0.7237112045288085,0.5072702407836914,0
0.7144735336303710,0.5039737701416015,0
0.7091938018798828,0.5135673522949219,0
0.7091938018798828,0.5062311172485351,0
0.7044456481933593,0.5175619125366211,0
0.7145605087280273,0.5117465972900390,0
0.7159681320190430,0.5103973388671875,0
0.7105327606201172,0.5249244689941406,0
0.7167652130126952,0.5134248733520508,0
0.7161993026733399,0.5143203735351562,0
0.7224603652954101,0.5141126632690429,0
0.7168642044067383,0.5186302185058593,0
0.7097471237182617,0.5226425170898438,0
0.7166067123413086,0.5145441055297851,0
0.7126287460327149,0.5145441055297851,0
0.7112348556518554,0.5099166870117188,0
0.7175628662109375,0.5099166870117188,0
0.7168785095214844,0.5150596618652343,0
0.7073467254638671,0.5150596618652343,0
0.7230159759521484,0.5145418167114257,0
0.7148809432983398,0.5145418167114257,0
0.7150354385375977,0.5124721527099609,0
0.7278688430786132,0.5124721527099609,0
0.7160333633422852,0.5134048461914062,0
0.7116296768188476,0.5134048461914062,0
0.7098352432250976,0.5076021194458008,0
0.7157295227050781,0.5076021194458008,0
0.7146886825561524,0.5115594863891602,0
0.7048650741577148,0.5115594863891602,0
0.7201938629150391,0.5102136611938476,0
0.7118482589721680,0.5102136611938476,0
0.7116588592529297,0.5076993942260742,0
0.7246519088745117,0.5076993942260742,0
0.7127357482910156,0.5086338043212890,0
0.7082273483276367,0.5086338043212890,0
0.7068517684936523,0.5034605026245117,0
0.7129714965820312,0.5034605026245117,0
0.7122751235961914,0.5081926345825195,0
0.7028989791870117,0.5081926345825195,0
0.7185482025146485,0.5079025268554688,0
0.7105287551879883,0.5079025268554688,0
0.7106277465820312,0.5063398361206054,0
0.7240539550781250,0.5063398361206054,0
0.7123483657836914,0.5081085205078125,0
0.7079864501953125,0.5081085205078125,0
0.7068220138549804,0.5037202835083008,0
0.7131906509399414,0.5037202835083008,0
0.7126893997192383,0.5088678359985351,0
0.7035924911499023,0.5088678359985351,0
0.7193080902099609,0.5090028762817382,0
0.7113864898681640,0.5090028762817382,0
0.7114952087402343,0.5078012466430664,0
0.7252979278564453,0.5078012466430664,0
0.7135540008544922,0.5099046707153320,0
0.7091629028320312,0.5099046707153320,0
0.7081220626831054,0.5058757781982421,0
0.7146451950073242,0.5058757781982421,0
0.7141834259033203,0.5110250473022461,0
0.7053119659423828,0.5110250473022461,0
0.7209674835205078,0.5113334655761719,0
0.7131357192993164,0.5113334655761719,0
0.7131740570068359,0.5100975036621094,0
0.7269670486450195,0.5100975036621094,0
0.7150800704956054,0.5121196746826172,0
0.7105499267578125,0.5121196746826172,0
0.7096773147583008,0.5081102371215820,0
0.7161563873291016,0.5081102371215820,0
0.7155344009399414,0.5127994537353515,0
0.7067476272583008,0.5127994537353515,0
0.7222732543945313,0.5130117416381835,0
0.7142263412475586,0.5130117416381835,0
0.7140895843505859,0.5114152908325195,0
0.7280570983886718,0.5114152908325195,0
0.7159023284912109,0.5130952835083008,0
0.7111381530761719,0.5130952835083008,0
0.7102317810058594,0.5090234756469726,0
0.7166324615478515,0.5090234756469726,0
0.7160591125488281,0.5133916854858398,0
0.7072059631347656,0.5133916854858398,0
0.7227304458618163,0.5133630752563476,0
0.7145381927490234,0.5133630752563476,0
0.7142675399780273,0.5116910934448242,0
0.7283409118652343,0.5116910934448242,0
0.7160545349121094,0.5134534835815430,0
0.7112222671508789,0.5134534835815430,0
0.7104154586791992,0.5095293045043945,0
0.7168624877929687,0.5095293045043945,0
0.7163778305053711,0.5137664794921875,0
0.7077564239501953,0.5137664794921875,0
0.7230937957763671,0.5139123916625976,0
0.7150016784667969,0.5139123916625976,0
0.7145776748657227,0.5122919082641602,0
0.7289840698242187,0.5122919082641602,0
0.7166479110717773,0.5141801834106445,0
0.7117229461669922,0.5141801834106445,0
0.7110420227050781,0.5105655670166015,0
0.7175622940063476,0.5105655670166015,0
0.7170753479003906,0.5146877288818359,0
0.7084985733032226,0.5146877288818359,0
0.7239870071411133,0.5149057388305663,0
0.7157793045043945,0.5149057388305663,0
0.7152786254882812,0.5132801055908203,0
0.7298509597778320,0.5132801055908203,0
0.7173912048339843,0.5151088714599609,0
0.7122322082519531,0.5151088714599609,0
0.7115015029907227,0.5115474700927735,0
0.7179119110107421,0.5115474700927735,0
0.7173471450805664,0.5148124694824219,0
0.7087062835693360,0.5148124694824219,0
0.7237106323242187,0.5142351150512695,0
0.7151968002319335,0.5142351150512695,0
0.7142166137695313,0.5114599227905273,0
0.7285039901733398,0.5114599227905273,0
0.7154731750488281,0.5121912002563477,0
0.7097826004028320,0.5121912002563477,0
0.7088516235351562,0.5078727722167968,0
0.7149925231933594,0.5078727722167968,0
0.7142469406127929,0.5102560043334960,0
0.7056449890136719,0.5102560043334960,0
0.7205102920532226,0.5095624923706055,0
0.7120834350585937,0.5095624923706055,0
0.7111375808715820,0.5069149017333984,0
0.7257757186889648,0.5069149017333984,0
0.7129125595092773,0.5085931777954101,0
0.7073118209838867,0.5085931777954101,0
0.7069147109985351,0.5054374694824219,0
0.7133966445922851,0.5054374694824219,0
0.7129451751708984,0.5084049224853515,0
0.7047986984252930,0.5084049224853515,0
0.7199209213256835,0.5086795806884765,0
0.7116113662719726,0.5086795806884765,0
0.7108755111694336,0.5068193435668945,0
0.7259050369262695,0.5068193435668945,0
0.7131557464599609,0.5089307785034179,0
0.7075887680053711,0.5089307785034179,0
0.7073747634887695,0.5065635681152344,0
0.7140953063964843,0.5065635681152344,0
0.7137920379638671,0.5096912384033203,0
0.7059225082397461,0.5096912384033203,0
0.7210641860961914,0.5103298187255859,0
0.7128999710083007,0.5103298187255859,0
0.7121738433837891,0.5087356567382812,0
0.7273979187011719,0.5087356567382812,0
0.7146406173706055,0.5111955642700196,0
0.7208438873291015,0.5111955642700196,0
0.7090764999389648,0.5093353271484374,0
0.7147178649902344,0.5093353271484374,0
0.7156179428100585,0.5122982025146484,0
0.7079235076904297,0.5122982025146484,0
0.7229679107666015,0.5127794265747070,0
0.7146926879882812,0.5127794265747070,0
0.7137960433959961,0.5109598159790039,0
0.7291460037231445,0.5109598159790039,0
0.7162290573120117,0.5133310317993164,0
0.7103822708129882,0.5133310317993164,0
0.7102872848510742,0.5114530563354492,0
0.7169878005981445,0.5114530563354492,0
0.7166788101196289,0.5137041091918945,0
0.7090816497802734,0.5137041091918945,0
0.7238182067871094,0.5139793395996094,0
0.7154073715209961,0.5139793395996094,0
0.7143756866455078,0.5117660522460937,0
0.7298870086669922,0.5117660522460937,0
0.7166976928710938,0.5139764785766602,0
0.7106288909912110,0.5139764785766602,0
0.7106082916259765,0.5122404098510742,0
0.7172252655029296,0.5122404098510742,0
0.7124450683593749,0.5251916885375977,0
0.7240934371948242,0.5077972412109375,0
0.7177099227905274,0.5120630264282227,0
0.7108337402343750,0.5120630264282227,0
0.7170255661010742,0.5144628524780274,0
0.7108915328979492,0.5144628524780274,0
0.7109264373779297,0.5130603790283202,0
0.7175846099853516,0.5130603790283202,0
0.7174106597900390,0.5146911621093749,0
0.7103633880615234,0.5146911621093749,0
0.7247194290161133,0.5150241851806641,0
0.7162073135375976,0.5150241851806641,0
0.7152145385742187,0.5127559661865234,0
0.7309404373168945,0.5127559661865234,0
0.7176441192626953,0.5153211593627930,0
0.7113367080688476,0.5153211593627930,0
0.7114580154418945,0.5143970489501953,0
0.7182861328125000,0.5143970489501953,0
0.7181591033935547,0.5156393051147461,0
0.7110563278198242,0.5156393051147461,0
0.7254392623901367,0.5160730361938476,0
0.7169202804565430,0.5160730361938476,0
0.7157976150512695,0.5135427474975586,0
0.7316253662109374,0.5135427474975586,0
0.7180967330932617,0.5158538818359375,0
0.7114608764648437,0.5158538818359375,0
0.7115221023559570,0.5145910263061523,0
0.7179845809936524,0.5145910263061523,0
0.7176052093505859,0.5145566940307617,0
0.7100824356079102,0.5145566940307617,0
0.7241106033325195,0.5138059616088867,0
0.7151138305664062,0.5138059616088867,0
0.7136032104492187,0.5099967956542969,0
0.7292158126831054,0.5099967956542969,0
0.7152048110961914,0.5116682052612305,0
0.7082061767578125,0.5116682052612305,0
0.7081918716430664,0.5102376937866211,0
0.7146892547607422,0.5102376937866211,0
0.7143716812133789,0.5099430084228516,0
0.7072002410888671,0.5099430084228516,0
0.7211797714233398,0.5097026824951172,0
0.7123970031738281,0.5097026824951172,0
0.7111433029174804,0.5066694259643555,0
0.7272720336914062,0.5066694259643555,0
0.7135259628295898,0.5092987060546875,0
0.7066944122314452,0.5092987060546875,0
0.7071739196777344,0.5091630935668945,0
0.7139293670654296,0.5091630935668945,0
0.7139986038208007,0.5093885421752929,0
0.7100057601928711,0.5093885421752929,0
0.7213376998901367,0.5098857879638672,0
0.7127712249755859,0.5098857879638672,0
0.7115879058837891,0.5073085784912109,0
0.7279964447021484,0.5073085784912109,0
0.7142772674560547,0.5105134963989257,0
0.7073324203491210,0.5105134963989257,0
0.7080911636352539,0.5110239028930664,0
0.7150005340576172,0.5110239028930664,0
0.7152906417846679,0.5112522125244140,0
0.7088796615600585,0.5112522125244140,0
0.7227842330932617,0.5120132446289062,0
0.7142417907714843,0.5120132446289062,0
0.7131122589111328,0.5094886779785156,0
0.7297101974487304,0.5094886779785156,0
0.7159870147705077,0.5130054473876953,0
0.7089260101318359,0.5130054473876953,0
0.7097677230834961,0.5138700485229492,0
0.7167097091674804,0.5138700485229492,0
0.7171022415161132,0.5136623382568359,0
0.7107072830200195,0.5136623382568359,0
0.7244058609008789,0.5143404006958008,0
0.7157512664794922,0.5143404006958008,0
0.7145610809326172,0.5114850997924805,0
0.7311206817626953,0.5114850997924805,0
0.7172515869140624,0.5146940231323242,0
0.7099021911621094,0.5146940231323242,0
0.7108148574829102,0.5155483245849609,0
0.7175125122070313,0.5155483245849609,0
0.7179754257202148,0.5147752761840820,0
0.7116537094116211,0.5147752761840820,0
0.7249757766723632,0.5151414871215820,0
0.7162696838378906,0.5151414871215820,0
0.7149810791015625,0.5119548797607422,0
0.7315315246582031,0.5119548797607422,0
0.7175891876220702,0.5151603698730468,0
0.7100612640380859,0.5151603698730468,0
0.7109979629516602,0.5162281036376953,0
0.7177127838134766,0.5162281036376953,0
0.7182889938354492,0.5150453567504882,0
0.7122041702270507,0.5150453567504882,0
0.7253128051757812,0.5155237197875976,0
0.7164659500122070,0.5155237197875976,0
0.7151464462280274,0.5121768951416016,0
0.7318725585937500,0.5121768951416016,0
0.7179170608520508,0.5156393051147461,0
0.7102752685546875,0.5156393051147461,0
0.7112932205200195,0.5171356201171875,0
0.7179874420166016,0.5171356201171875,0
0.7187393188476562,0.5157011032104492,0
0.7128049850463867,0.5157011032104492,0
0.7256956100463867,0.5162572860717773,0
0.7168722152709961,0.5162572860717773,0
0.7155864715576171,0.5129676818847656,0
0.7324047088623047,0.5129676818847656,0
0.7184829711914062,0.5166635513305664,0
0.7108016967773437,0.5166635513305664,0
0.7119289398193359,0.5185907363891601,0
0.7186225891113281,0.5185907363891601,0
0.7195438385009766,0.5167476654052734,0
0.7137142181396484,0.5167476654052734,0
0.7264909744262695,0.5170520782470703,0
0.7174009323120117,0.5170520782470703,0
0.7158828735351562,0.5131113052368164,0
0.7325592041015625,0.5131113052368164,0
0.7183416366577148,0.5161153793334960,0
0.7101282119750977,0.5161153793334960,0
0.7110528945922852,0.5173610687255860,0
0.7172750473022461,0.5173610687255860,0
0.7180435180664062,0.5140342712402344,0
0.7118459701538086,0.5140342712402344,0
0.7241357803344727,0.5134414672851563,0
0.7146800994873047,0.5134414672851563,0
0.7128341674804687,0.5087917327880859,0
0.7294567108154296,0.5087917327880859,0
0.7152746200561523,0.5116928100585937,0
0.7068763732910156,0.5116928100585937,0
0.7080511093139649,0.5135038375854492,0
0.7144992828369140,0.5135038375854492,0
0.7156591415405273,0.5104923248291016,0
0.7099628448486328,0.5104923248291016,0
0.7221593856811523,0.5108139038085937,0
0.7130355834960938,0.5108139038085937,0
0.7115581512451171,0.5069332122802734,0
0.7284793853759766,0.5069332122802734,0
0.7146188735961914,0.5109815597534180,0
0.7062772750854492,0.5109815597534180,0
0.7078468322753906,0.5137035369873046,0
0.7145421981811523,0.5137035369873046,0
0.7161472320556640,0.5110673904418945,0
0.7107015609741211,0.5110673904418945,0
0.7228477478027343,0.5118902206420898,0
0.7138938903808594,0.5118902206420898,0
0.7123729705810546,0.5083608627319336,0
0.7295104980468750,0.5083608627319336,0
0.7158428192138672,0.5127502441406250,0
0.7071464538574218,0.5127502441406250,0
0.7092424392700195,0.5161417007446288,0
0.7159154891967773,0.5161417007446288,0
0.7179021835327148,0.5134271621704102,0
0.7126596450805663,0.5134271621704102,0
0.7244464874267578,0.5144508361816406,0
0.7155252456665039,0.5144508361816406,0
0.7140106201171875,0.5107566833496093,0
0.7312734603881835,0.5107566833496093,0
0.7176321029663085,0.5152038574218750,0
0.7085094451904297,0.5152038574218750,0
0.7107250213623046,0.5186656951904297,0
0.7173454284667968,0.5186656951904297,0
0.7194814682006836,0.5154304504394531,0
0.7143001556396484,0.5154304504394531,0
0.7255611419677734,0.5161233901977539,0
0.7166038513183594,0.5161233901977539,0
0.7149381637573242,0.5120069503784179,0
0.7321523666381836,0.5120069503784179,0
0.7184400558471680,0.5162509918212891,0
0.7089672088623047,0.5162509918212891,0
0.7113080978393554,0.5197254180908203,0
0.7177997589111328,0.5197254180908203,0
0.7200519561767578,0.5159128189086913,0
0.7148426055908202,0.5159128189086913,0
0.7257476806640625,0.5164667129516601,0
0.7168132781982421,0.5164667129516601,0
0.7150279998779296,0.5121912002563477,0
0.7322376251220702,0.5121912002563477,0
0.7186082839965821,0.5165302276611328,0
0.7088430404663085,0.5165302276611328,0
0.7113744735717773,0.5201694488525390,0
0.7179222106933594,0.5201694488525390,0
0.7204914093017578,0.5161949157714844,0
0.7153553009033203,0.5161949157714844,0
0.7258163452148437,0.5168787002563476,0
0.7170192718505859,0.5168787002563476,0
0.7141061782836914,0.5125705718994140,0
0.7190122604370117,0.5170818328857422,0
0.7091337203979492,0.5170818328857422,0
0.7119655609130859,0.5211141586303710,0
0.7183313369750977,0.5211141586303710,0
0.7211305618286132,0.5170228958129882,0
0.7162302017211913,0.5170228958129882,0
0.7262792587280273,0.5178377151489257,0
0.7177179336547851,0.5178377151489257,0
0.7157587051391602,0.5134969711303711,0
0.7331903457641601,0.5134969711303711,0
0.7197492599487304,0.5180196762084961,0
0.7096693038940429,0.5180196762084961,0
0.7124959945678710,0.5221647262573242,0
0.7187530517578125,0.5221647262573242,0
0.7217697143554688,0.5174474716186523,0
0.7167303085327148,0.5174474716186523,0
0.7260269165039063,0.5176277160644531,0
0.7172555923461914,0.5176277160644531,0
0.7150508880615234,0.5122146606445312,0
0.7320940017700195,0.5122146606445312,0
0.7183210372924804,0.5158653259277344,0
0.7077449798583985,0.5158653259277344,0
0.7104343414306641,0.5191509246826171,0
0.7163412094116210,0.5191509246826171,0
0.7192382812500000,0.5134941101074219,0
0.7141393661499024,0.5134941101074219,0
0.7228740692138672,0.5132749557495117,0
0.7142812728881835,0.5132749557495117,0
0.7119386672973632,0.5079071044921875,0
0.7292518615722656,0.5079071044921875,0
0.7157564163208008,0.5120904922485351,0
0.7052364349365234,0.5120904922485351,0
0.7083475112915039,0.5164043426513671,0
0.7144495010375976,0.5164043426513671,0
0.7180017471313477,0.5113712310791015,0
0.7131631851196288,0.5113712310791015,0
0.7217845916748047,0.5121459960937500,0
0.7165660858154297,0.5086406707763672,0
0.7165660858154297,0.5108551025390625,0
0.7159984588623046,0.5108551025390625,0
0.7240407943725585,0.5060977935791016,0
0.7089677810668945,0.5178943634033203,0
0.7151258468627929,0.5178943634033203,0
0.7145112991333008,0.5246784210205078,0
0.7148300170898437,0.5071443557739258,0
0.7051082611083984,0.5232238769531250,0
0.7128730773925781,0.5206077575683593,0
0.7305988311767578,0.5114913940429687,0
0.7175388336181641,0.5148736953735351,0
0.7106243133544922,0.5201734542846680,0
0.7184057235717773,0.5126518249511719,0
0.7184057235717773,0.5161560058593749,0
0.7305227279663086,0.5095327377319335,0
0.7194911956787109,0.5255653381347656,0
0.7142812728881835,0.5228284835815430,0
0.7319211959838867,0.5118421554565430,0
0.7082931518554687,0.5168134689331054,0
0.7177803039550781,0.5143712997436524,0
0.7195838928222656,0.5177421569824219,0
0.7222217559814453,0.5060766220092773,0
0.7171554565429688,0.5174766540527344,0
0.7148689270019531,0.5125614166259765,0
0.7148689270019531,0.5184722900390625,0
0.7148689270019531,0.5159254074096680,0
0.7213296890258789,0.5109769821166992,0
0.7278253555297851,0.5109769821166992,0
0.7198402404785156,0.5180059432983398,0
0.7165077209472656,0.5180059432983398,0
0.7178998947143554,0.5109695434570313,0
0.7311761856079101,0.5109695434570313,0
0.7203826904296875,0.5267091751098633,0
0.7076940536499023,0.5267091751098633,0
0.7151899337768555,0.5161502838134765,0
0.7112508773803711,0.5161502838134765,0
0.7214595794677734,0.5112470626831055,0
0.7182128906249999,0.5230670928955078,0
0.7231887817382813,0.5172300338745117,0
0.7182867050170898,0.5291896820068359,0
0.7152317047119140,0.5132692337036132,0
0.7132261276245117,0.5241182327270507,0
0.7190557479858398,0.5123239517211914,0
0.7162490844726562,0.5176328659057617,0
0.7207735061645507,0.5240747451782226,0
0.7137039184570312,0.5110021591186523,0
0.7103685379028321,0.5200115203857422,0
0.7078256607055664,0.5064582824707031,0
0.7095371246337890,0.5203880310058594,0
0.7130584716796875,0.5127782821655273,0
0.7185527801513671,0.5090217590332031,0
0.7149450302124023,0.5152959823608398,0
0.7202934265136719,0.5182983398437500,0
0.7236173629760742,0.5114250183105469,0
0.7161603927612304,0.5169605255126953,0
0.7180664062500000,0.5166521072387695,0
0.7146137237548827,0.5132263183593749,0
0.7136175155639648,0.5252992630004882,0
0.7237071990966797,0.5198490142822265,0
0.7261470794677735,0.5179790496826172,0
0.7220438003540038,0.5278970718383789,0
0.7154228210449218,0.5137996673583984,0
0.7209926605224609,0.5096174240112304,0
0.7086336135864257,0.5136520385742187,0
0.7181768417358398,0.5073554992675781,0
0.7297863006591797,0.5168592453002929,0
0.7202905654907227,0.5162389755249023,0
0.7325500488281250,0.5199016571044922,0
0.7288890838623047,0.5139204025268554,0
0.7198654174804687,0.5128526687622070,0
0.7183273315429687,0.5256620407104492,0
0.7215196609497070,0.5140211105346679,0
0.7285915374755859,0.5130929946899414,0
0.7180023193359375,0.5202558517456054,0
0.7153158187866211,0.5085525512695312,0
0.7158811569213867,0.5150093078613281,0
0.7188308715820312,0.5328563690185547,0
0.7116056442260742,0.5173221588134765,0
0.7203128814697265,0.5178554534912109,0
0.7131317138671874,0.5243076324462891,0
0.7197578430175781,0.5153480529785156,0
0.7172372817993163,0.5290586471557617,0
0.7252841949462890,0.5094697952270507,0
0.7077581405639648,0.5219747543334960,0
0.7155166625976562,0.5145063400268555,0
0.7185939788818360,0.5153949737548827,0
0.7119529724121093,0.5227506637573242,0
0.7263370513916015,0.5133436203002929,0
0.7167469024658203,0.5133436203002929,0
0.7190328598022461,0.5221263885498046,0
0.7125217437744140,0.5221263885498046,0
0.7164602279663086,0.5154996871948242,0
0.7109561920166015,0.5154996871948242,0
0.7191707611083984,0.5117254257202148,0
0.7308895111083984,0.5117254257202148,0
0.7200193405151367,0.5177970886230469,0
0.7168498992919922,0.5177970886230469,0
0.7181224822998047,0.5111474990844727,0
0.7262277603149414,0.5111474990844727,0
0.7205326080322265,0.5242813110351562,0
0.7097579956054687,0.5242813110351562,0
0.7182884216308594,0.5178594589233398,0
0.7128490447998047,0.5178594589233398,0
0.7207712173461914,0.5143129348754882,0
0.7324848175048828,0.5143129348754882,0
0.7215986251831055,0.5200784683227538,0
0.7294309616088867,0.5200784683227538,0
0.7195981979370117,0.5133968353271484,0
0.7274419784545898,0.5133968353271484,0
0.7219036102294921,0.5258857727050781,0
0.7111330032348633,0.5258857727050781,0
0.7198711395263672,0.5194639205932617,0
0.7141427993774414,0.5194639205932617,0
0.7218223571777344,0.5157526016235351,0
0.7335262298583984,0.5157526016235351,0
0.7223796844482422,0.5210735321044921,0
0.7189785003662109,0.5210735321044921,0
0.7199335098266602,0.5141418457031249,0
0.7276657104492187,0.5141418457031249,0
0.7222726821899413,0.5260848999023438,0
0.7114213943481446,0.5260848999023438,0
0.7204404830932617,0.5198329925537110,0
0.7145690917968750,0.5198329925537110,0
0.7219219207763672,0.5160753250122070,0
0.7336429595947266,0.5160753250122070,0
0.7224271774291992,0.5211748123168946,0
0.7190517425537110,0.5211748123168946,0
0.7199609756469726,0.5142786026000976,0
0.7274820327758789,0.5142786026000976,0
0.7223361968994141,0.5259864807128906,0
0.7115060806274414,0.5259864807128906,0
0.7210029602050781,0.5199451446533203,0
0.7149776458740235,0.5199451446533203,0
0.7220495223999023,0.5164386749267578,0
0.7338661193847656,0.5164386749267578,0
0.7227235794067383,0.5214809417724610,0
0.7193304061889648,0.5214809417724610,0
0.7200834274291992,0.5148405075073242,0
0.7276268005371094,0.5148405075073242,0
0.7227458953857422,0.5264528274536132,0
0.7120536804199219,0.5264528274536132,0
0.7217914581298828,0.5206197738647461,0
0.7156671524047852,0.5206197738647461,0
0.7225181579589843,0.5172889709472656,0
0.7343524932861328,0.5172889709472656,0
0.7232425689697265,0.5221870422363281,0
0.7198139190673828,0.5221870422363281,0
0.7203220367431641,0.5154184341430664,0
0.7276708602905273,0.5154184341430664,0
0.7229295730590820,0.5264762878417969,0
0.7121629714965820,0.5264762878417969,0
0.7220884323120117,0.5202907562255860,0
0.7155612945556641,0.5202907562255860,0
0.7218549728393554,0.5163156509399414,0
0.7334890365600586,0.5163156509399414,0
0.7219207763671874,0.5201082229614258,0
0.7181591033935547,0.5201082229614258,0
0.7183319091796875,0.5125236511230469,0
0.7253362655639648,0.5125236511230469,0
0.7205200195312500,0.5226362228393554,0
0.7095834732055664,0.5226362228393554,0
0.7197046279907227,0.5165096282958984,0
0.7131134033203125,0.5165096282958984,0
0.7191719055175781,0.5127851486206054,0
0.7309221267700196,0.5127851486206054,0
0.7195695877075196,0.5169347763061524,0
0.7280817031860352,0.5037397384643555,0
0.7163400650024414,0.5101953506469726,0
0.7186420440673827,0.5101953506469726,0
0.7193246841430664,0.5209848403930664,0
0.7087080001831054,0.5209848403930664,0
0.7193338394165039,0.5158384323120117,0
0.7129400253295898,0.5158384323120117,0
0.7190654754638671,0.5129281997680664,0
0.7310932159423827,0.5129281997680664,0
0.7199123382568359,0.5175407409667968,0
0.7165655136108399,0.5175407409667968,0
0.7169574737548828,0.5113780975341796,0
0.7241460800170898,0.5113780975341796,0
0.7203889846801758,0.5224302291870117,0
0.7099302291870117,0.5224302291870117,0
0.7209102630615234,0.5177787780761719,0
0.7145238876342773,0.5177787780761719,0
0.7204599380493164,0.5152605056762695,0
0.7326089859008789,0.5152605056762695,0
0.7215471267700195,0.5199056625366211,0
0.7304357528686524,0.5199056625366211,0
0.7185327529907226,0.5139049530029297,0
0.7257396697998046,0.5139049530029297,0
0.7220134735107422,0.5245473861694335,0
0.7116319656372070,0.5245473861694335,0
0.7229164123535156,0.5200664520263671,0
0.7163589477539062,0.5200664520263671,0
0.7220317840576171,0.5173788070678711,0
0.7340034484863281,0.5173788070678711,0
0.7228231430053711,0.5215707778930664,0
0.7193830490112304,0.5215707778930664,0
0.7195363998413086,0.5153377532958984,0
0.7264492034912109,0.5153377532958984,0
0.7228672027587890,0.5254566192626953,0
0.7123197555541992,0.5254566192626953,0
0.7238376617431640,0.5207977294921875,0
0.7170610427856445,0.5207977294921875,0
0.7224054336547852,0.5179824829101562,0
0.7343124389648438,0.5179824829101562,0
0.7319452285766601,0.5184820175170898,0
0.7195203781127929,0.5184820175170898,0
0.7229295730590820,0.5133779525756835,0
0.7124015808105468,0.5254302978515625,0
0.7241466522216796,0.5208692550659180,0
0.7241466522216796,0.5208795547485351,0
0.7223922729492187,0.5181169509887695,0
0.7343404769897460,0.5181169509887695,0
0.7231447219848632,0.5219747543334960,0
0.7196960449218750,0.5219747543334960,0
0.7195678710937500,0.5158985137939452,0
0.7263267517089843,0.5158985137939452,0
0.7231447219848632,0.5256002426147460,0
0.7126865386962891,0.5256002426147460,0
0.7247480392456055,0.5212886810302734,0
0.7178100585937500,0.5212886810302734,0
0.7228071212768554,0.5190896987915039,0
0.7347244262695313,0.5190896987915039,0
0.7235664367675781,0.5226940155029297,0
0.7200765609741211,0.5226940155029297,0
0.7198665618896484,0.5166154861450195,0
0.7266019821166992,0.5166154861450195,0
0.7235607147216797,0.5262285232543945,0
0.7131540298461914,0.5262285232543945,0
0.7255308151245117,0.5219684600830078,0
0.7184177398681640,0.5219684600830078,0
0.7230863571166992,0.5192647933959961,0
0.7348794937133789,0.5192647933959961,0
0.7235612869262695,0.5225795745849610,0
0.7198854446411133,0.5225795745849610,0
0.7193830490112304,0.5158315658569336,0
0.7257385253906250,0.5158315658569336,0
0.7226148605346679,0.5244832992553711,0
0.7118946075439453,0.5244832992553711,0
0.7242158889770508,0.5194971084594726,0
0.7167079925537109,0.5194971084594726,0
0.7207460403442383,0.5161737442016602,0
0.7323612213134766,0.5161737442016602,0
0.7211082458496093,0.5189861297607422,0
0.7172796249389648,0.5189861297607422,0
0.7166393280029296,0.5122844696044921,0
0.7230182647705078,0.5122844696044921,0
0.7201543807983398,0.5209825515747070,0
0.7096063613891601,0.5209825515747070,0
0.7223791122436524,0.5166904449462890,0
0.7151075363159179,0.5166904449462890,0
0.7194625854492187,0.5143020629882812,0
0.7312677383422851,0.5143020629882812,0
0.7201812744140624,0.5178136825561523,0
0.7167200088500977,0.5178136825561523,0
0.7161346435546875,0.5119497299194335,0
0.7226772308349609,0.5119497299194335,0
0.7203157424926757,0.5211788177490234,0
0.7100440979003906,0.5211788177490234,0
0.7231985092163086,0.5176671981811524,0
0.7160745620727539,0.5176671981811524,0
0.7202613830566406,0.5157720565795898,0
0.7322708129882812,0.5157720565795898,0
0.7213285446166992,0.5195102691650391,0
0.7308254241943359,0.5195102691650391,0
0.7174203872680663,0.5140909194946289,0
0.7239732742309570,0.5140909194946289,0
0.7218326568603516,0.5232976913452149,0
0.7116130828857422,0.5232976913452149,0
0.7251588821411132,0.5200057983398437,0
0.7178089141845703,0.5200057983398437,0
0.7219505310058594,0.5182359695434570,0
0.7339187622070312,0.5182359695434570,0
0.7229627609252930,0.5218070983886719,0
0.7195026397705078,0.5218070983886719,0
0.7188486099243164,0.5161668777465820,0
0.7252996444702148,0.5161668777465820,0
0.7232196807861327,0.5247533798217773,0
0.7128719329833985,0.5247533798217773,0
0.7265155792236327,0.5215421676635742,0
0.7190626144409179,0.5215421676635742,0
0.7227613449096679,0.5194856643676757,0
0.7346179962158202,0.5194856643676757,0
0.7236808776855469,0.5226333618164062,0
0.7200445175170899,0.5226333618164062,0
0.7192331314086914,0.5168460845947266,0
0.7255142211914062,0.5168460845947266,0
0.7235315322875976,0.5249542236328125,0
0.7164985656738281,0.5249542236328125,0
0.7269458770751953,0.5217699050903321,0
0.7193635940551758,0.5217699050903321,0
0.7228105545043945,0.5196304321289062,0
0.7346397399902344,0.5196304321289062,0
0.7236906051635742,0.5226356506347656,0
0.7330930709838867,0.5226356506347656,0
0.7190763473510742,0.5169136047363281,0
0.7253723144531250,0.5169136047363281,0
0.7235744476318359,0.5246337890625000,0
0.7132432937622070,0.5246337890625000,0
0.7195569992065429,0.5219009399414062,0
0.7241260528564453,0.5219009399414062,0
0.7229547500610352,0.5198936462402344,0
0.7347770690917969,0.5198936462402344,0
0.7239629745483398,0.5230110168457031,0
0.7204238891601562,0.5230110168457031,0
0.7193206787109375,0.5172843933105469,0
0.7255228042602538,0.5172843933105469,0
0.7239572525024414,0.5249095916748047,0
0.7136363983154297,0.5249095916748047,0
0.7280296325683594,0.5225200653076172,0
0.7202693939208984,0.5225200653076172,0
0.7234348297119141,0.5206575393676758,0
0.7352760314941406,0.5206575393676758,0
0.7243938446044922,0.5235952377319336,0
0.7207706451416015,0.5235952377319336,0
0.7195884704589843,0.5178382873535156,0
0.7256961822509765,0.5178382873535156,0
0.7240854263305664,0.5247282028198242,0
0.7136180877685546,0.5247282028198242,0
0.7277870178222656,0.5217939376831054,0
0.7197933197021484,0.5217939376831054,0
0.7225038528442382,0.5192464828491211,0
0.7340904235839844,0.5192464828491211,0
0.7228185653686523,0.5212331771850586,0
0.7188869476318359,0.5212331771850586,0
0.7173454284667968,0.5147455215454101,0
0.7230937957763671,0.5147455215454101,0
0.7215408325195313,0.5209985733032226,0
0.7109561920166015,0.5209985733032226,0
0.7253665924072266,0.5181638717651367,0
0.7172945022583007,0.5181638717651367,0
0.7200393676757812,0.5158836364746093,0
0.7317947387695313,0.5158836364746093,0
0.7207443237304687,0.5183343887329102,0
0.7170347213745117,0.5183343887329102,0
0.7156368255615234,0.5127067565917969,0
0.7216964721679687,0.5127067565917969,0
0.7206144332885742,0.5197723388671874,0
0.7103490829467773,0.5197723388671874,0
0.7252578735351562,0.5178165435791016,0
0.7174226760864257,0.5178165435791016,0
0.7201612472534179,0.5162899017333984,0
0.7321861267089843,0.5162899017333984,0
0.7213342666625976,0.5192001342773437,0
0.7178295135498046,0.5192001342773437,0
0.7164636611938476,0.5141572952270508,0
0.7226932525634765,0.5141572952270508,0
0.7217588424682617,0.5213630676269531,0
0.7116062164306640,0.5213630676269531,0
0.7267021179199219,0.5199222564697266,0
0.7189435958862305,0.5199222564697266,0
0.7216455459594726,0.5185300827026367,0
0.7336715698242188,0.5185300827026367,0
0.7229358673095703,0.5215227127075195,0
0.7193521499633789,0.5215227127075195,0
0.7180469512939452,0.5164821624755859,0
0.7241701126098633,0.5164821624755859,0
0.7232860565185547,0.5234762191772461,0
0.7131156921386719,0.5234762191772461,0
0.7284296035766601,0.5219593048095703,0
0.7204977035522461,0.5219593048095703,0
0.7228860855102539,0.5203760147094726,0
0.7348766326904297,0.5203760147094726,0
0.7241037368774413,0.5230281829833984,0
0.7204187393188476,0.5230281829833984,0
0.7188583374023437,0.5177026748657226,0
0.7248613357543945,0.5177026748657226,0
0.7239784240722656,0.5243213653564452,0
0.7136804580688476,0.5243213653564452,0
0.7290430068969727,0.5225378036499023,0
0.7209983825683594,0.5225378036499023,0
0.7231636047363281,0.5207811355590820,0
0.7351810455322265,0.5207811355590820,0
0.7242216110229492,0.5231861114501953,0
0.7205028533935547,0.5231861114501953,0
0.7188480377197265,0.5177221298217773,0
0.7247554779052734,0.5177221298217773,0
0.7239509582519531,0.5242052078247070,0
0.7136398315429687,0.5242052078247070,0
0.7291769027709961,0.5225006103515625,0
0.7210641860961914,0.5225006103515625,0
0.7231504440307617,0.5208292007446289,0
0.7352485656738281,0.5208292007446289,0
0.7242290496826171,0.5231615066528320,0
0.7205371856689453,0.5231615066528320,0
0.7189287185668946,0.5179258346557617,0
0.7248613357543945,0.5179258346557617,0
0.7241741180419922,0.5243625640869141,0
0.7139436721801757,0.5243625640869141,0
0.7295757293701172,0.5228364944458007,0
0.7214178085327149,0.5228364944458007,0
0.7233821868896484,0.5214214324951172,0
0.7355546951293945,0.5214214324951172,0
0.7246049880981446,0.5236993789672851,0
0.7209835052490234,0.5236993789672851,0
0.7192508697509765,0.5185598373413086,0
0.7251680374145507,0.5185598373413086,0
0.7246004104614258,0.5248506546020507,0
0.7143087387084961,0.5248506546020507,0
0.7300426483154296,0.5232862472534180,0
0.7217519760131835,0.5232862472534180,0
0.7234010696411133,0.5213121414184571,0
0.7354242324829101,0.5213121414184571,0
0.7241003036499023,0.5228404998779297,0
0.7201045989990235,0.5228404998779297,0
0.7180166244506836,0.5168964385986328,0
0.7236717224121093,0.5168964385986328,0
0.7228431701660156,0.5221046447753906,0
0.7122934341430663,0.5221046447753906,0
0.7277841567993164,0.5198467254638671,0
0.7192937850952148,0.5198467254638671,0
0.7206722259521484,0.5174795150756836,0
0.7326290130615234,0.5174795150756836,0
0.7213645935058594,0.5189163208007812,0
0.7174604415893554,0.5189163208007812,0
0.7155178070068359,0.5133859634399414,0
0.7213577270507813,0.5133859634399414,0
0.7206647872924804,0.5191726684570312,0
0.7104228973388672,0.5191726684570312,0
0.7264389038085938,0.5178382873535156,0
0.7182380676269531,0.5178382873535156,0
0.7198213577270508,0.5163270950317382,0
0.7321609497070313,0.5163270950317382,0
0.7210435867309570,0.5185735702514648,0
0.7174106597900390,0.5185735702514648,0
0.7156328201293946,0.5137332916259766,0
0.7216592788696289,0.5137332916259766,0
0.7213296890258789,0.5198987960815430,0
0.7113178253173827,0.5198987960815430,0
0.7275094985961914,0.5193014144897461,0
0.7193183898925781,0.5193014144897461,0
0.7208919525146484,0.5181020736694336,0
0.7334753036499023,0.5181020736694336,0
0.7223951339721679,0.5206180572509765,0
0.7188680648803710,0.5206180572509765,0
0.7171783447265625,0.5159105300903321,0
0.7232597351074218,0.5159105300903321,0
0.7229541778564453,0.5221246719360352,0
0.7129360198974609,0.5221246719360352,0
0.7291843414306640,0.5215204238891601,0
0.7211002349853516,0.5215204238891601,0
0.7223939895629883,0.5203050613403321,0
0.7349967956542969,0.5203050613403321,0
0.7239006042480468,0.5225961685180663,0
0.7202568054199219,0.5225961685180663,0
0.7184417724609374,0.5177352905273437,0
0.7243835449218750,0.5177352905273437,0
0.7239812850952149,0.5235202789306640,0
0.7139562606811524,0.5235202789306640,0
0.7301485061645507,0.5226339340209961,0
0.7218990325927734,0.5226339340209961,0
0.7229593276977538,0.5211828231811523,0
0.7355026245117188,0.5211828231811523,0
0.7243412017822265,0.5230619430541992,0
0.7205188751220702,0.5230619430541992,0
0.7186809539794922,0.5180328369140624,0
0.7244974136352539,0.5180328369140624,0
0.7241729736328125,0.5235139846801757,0
0.7140329360961913,0.5235139846801757,0
0.7302515029907226,0.5226499557495117,0
0.7219860076904296,0.5226499557495117,0
0.7228809356689453,0.5212223052978515,0
0.7356439590454101,0.5212223052978515,0
0.7243509292602539,0.5229618072509765,0
0.7205148696899414,0.5229618072509765,0
0.7186431884765625,0.5180540084838867,0
0.7246267318725585,0.5180540084838867,0
0.7242450714111328,0.5234830856323242,0
0.7141136169433594,0.5234830856323242,0
0.7305490493774414,0.5229532241821289,0
0.7222171783447265,0.5229532241821289,0
0.7231241226196289,0.5215644836425781,0
0.7358831405639649,0.5215644836425781,0
0.7246164321899414,0.5233823776245117,0
0.7208490371704102,0.5233823776245117,0
0.7189069747924804,0.5187263488769531,0
0.7249105453491210,0.5187263488769531,0
0.7246404647827148,0.5240232467651367,0
0.7146240234375000,0.5240232467651367,0
0.7310279846191406,0.5235666275024414,0
0.7227052688598633,0.5235666275024414,0
0.7234405517578125,0.5220130920410156,0
0.7361726760864258,0.5220130920410156,0
0.7246610641479492,0.5233371734619140,0
0.7205966949462891,0.5233371734619140,0
0.7184978485107422,0.5179367065429688,0
0.7241901397705078,0.5179367065429688,0
0.7235973358154296,0.5222476959228516,0
0.7132244110107422,0.5222476959228516,0
0.7292655944824219,0.5207925796508789,0
0.7205972671508789,0.5207925796508789,0
0.7207986831665039,0.5182067871093750,0
0.7334215164184570,0.5182067871093750,0
0.7215986251831055,0.5190078735351562,0
0.7174180984497071,0.5190078735351562,0
0.7153181076049805,0.5134466171264648,0
0.7210412979125976,0.5134466171264648,0
0.7206052780151367,0.5179601669311523,0
0.7104972839355469,0.5179601669311523,0
0.7267547607421875,0.5172901153564453,0
0.7182975769042969,0.5172901153564453,0
0.7187833786010742,0.5156244277954102,0
0.7318284988403320,0.5156244277954102,0
0.7203563690185547,0.5113254547119140,0
0.7265018463134766,0.5113254547119140,0
0.7189601898193360,0.5170194625854492,0
0.7169900894165039,0.5170194625854492,0
0.7136363983154297,0.5104259490966797,0
0.7337797164916992,0.5104259490966797,0
0.7213851928710937,0.5223752975463867,0
0.7093299865722656,0.5223752975463867,0
0.7141056060791016,0.5210186004638672,0
0.7143688201904297,0.5210186004638672,0
0.7300878524780273,0.5130054473876953,0
0.7277166366577148,0.5130054473876953,0
0.7203512191772461,0.5190370559692382,0
0.7219882965087890,0.5199869155883788,0
0.7288908004760742,0.5171510696411132,0
0.7211677551269531,0.5249101638793945,0
0.7211677551269531,0.5192161560058594,0
0.7229919433593750,0.5211919784545899,0
0.7174358367919922,0.5332357406616210,0
0.7235498428344727,0.5166875839233398,0
0.7138252258300781,0.5196023941040039,0
0.7301599502563476,0.5219924926757812,0
0.7242204666137695,0.5267189025878906,0
0.7166536331176757,0.5306482315063477,0
0.7321918487548827,0.5223129272460937,0
0.7321918487548827,0.5162200927734375,0
0.7202213287353515,0.5218648910522461,0
0.7237958908081055,0.5224720001220703,0
0.7304832458496093,0.5223186492919921,0
0.7222074508666992,0.5235654830932617,0
0.7357543945312500,0.5207056045532227,0
0.7239257812500000,0.5223117828369140,0
0.7180297851562499,0.5174549102783202,0
0.7226039886474609,0.5218809127807617,0
0.7172412872314453,0.5152690887451171,0
0.7306291580200195,0.5190805435180664,0
0.7121103286743163,0.5273677825927734,0
0.7167400360107422,0.5244318008422851,0
0.7241546630859375,0.5226121902465820,0
0.7183530807495117,0.5343389511108398,0
0.7242702484130860,0.5097587585449218,0
0.7147413253784179,0.5229927062988281,0
0.7311944961547852,0.5231557846069336,0
0.7366241455078125,0.5216829299926757,0
0.7175273895263672,0.5248134613037109,0
0.7324419021606445,0.5168569564819335,0
0.7184371948242188,0.5343275070190430,0
0.7239641189575196,0.5221601486206054,0
0.7363466262817383,0.5147998809814452,0
0.7301010131835938,0.5213115692138671,0
0.7207872390747070,0.5186639785766601,0
0.7218629837036132,0.5190805435180664,0
0.7292123794555664,0.5072439193725585,0
0.7209812164306640,0.5132726669311524,0
0.7109138488769531,0.5171384811401367,0
0.7138916015625000,0.5099281311035156,0
0.7203889846801758,0.5128875732421875,0
0.7125961303710937,0.5146150588989258,0
0.7125961303710937,0.5174434661865234,0
0.7272731781005859,0.5097272872924804,0
0.7136220932006836,0.5061658859252930,0
0.7160596847534180,0.5155792236328125,0
0.7327651977539062,0.5092752456665038,0
0.7266757965087890,0.5162847518920898,0
0.7180921554565429,0.5191715240478515,0
0.7201784133911132,0.5180374145507812,0
0.7201784133911132,0.5168884277343749,0
0.7144695281982422,0.5128005981445313,0
0.7194339752197265,0.5171407699584961,0
0.7146812438964844,0.5110931396484375,0
0.7280107498168945,0.5110931396484375,0
0.7194402694702148,0.5215587615966797,0
0.7339828491210937,0.5172328948974609,0
0.7293348312377930,0.5132543563842773,0
0.7161993026733399,0.5132543563842773,0
0.7187908172607421,0.5195686340332031,0
0.7163887023925781,0.5135004043579101,0
0.7296575546264649,0.5167900085449219,0
0.7207689285278320,0.5238309860229492,0
0.7151933670043945,0.5217578887939452,0
0.7229902267456054,0.5207679748535156,0
0.7171703338623047,0.5167596817016601,0
0.7221153259277343,0.5115205764770507,0
0.7172430038452148,0.5319305419921875,0
0.7363220214843750,0.5143220901489257,0
0.7111267089843750,0.5277019500732422,0
0.7212072372436523,0.5195451736450195,0
0.7232208251953125,0.5210786819458008,0
0.7303127288818360,0.5101215362548828,0
0.7222320556640625,0.5117683410644531,0
0.7196628570556640,0.5209001541137696,0
0.7363025665283203,0.5144542694091797,0
0.7304048538208008,0.5212800979614257,0
0.7212387084960937,0.5197597503662109,0
0.7164596557617188,0.5281448364257812,0
0.7304340362548828,0.5104516983032227,0
0.7293588638305664,0.5150859832763671,0
0.7235864639282227,0.5213642120361328,0
0.7235864639282227,0.5215879440307617,0
0.7308969497680664,0.5220148086547851,0
0.7243280410766602,0.5289648056030273,0
0.7170341491699218,0.5227386474609375,0
0.7239498138427735,0.5227386474609375,0
0.7179273605346680,0.5158836364746093,0
0.7179273605346680,0.5184453964233399,0
0.7238267898559571,0.5217309951782226,0
0.7305536270141602,0.5171848297119140,0
0.7216529846191406,0.5211771011352538,0
0.7204467773437500,0.5183624267578125,0
0.7218240737915039,0.5188116073608399,0
0.7280302047729492,0.5073257446289062,0
0.7196565628051758,0.5168495178222656,0
0.7165042877197265,0.5168495178222656,0
0.7327016830444336,0.5094394683837891,0
0.7268920898437500,0.5157268524169921,0
0.7168659210205078,0.5132326126098633,0
0.7122430801391602,0.5209848403930664,0
0.7251857757568360,0.5080907821655273,0
0.7243526458740234,0.5080907821655273,0
0.7185888290405273,0.5141384124755859,0
0.7185888290405273,0.5140142440795898,0
0.7259405136108398,0.5143758773803710,0
0.7163703918457031,0.5186513900756836,0
0.7317008972167969,0.5127754211425781,0
0.7133022308349609,0.5146883010864257,0
0.7252910614013671,0.5084707260131835,0
0.7183387756347656,0.5150316238403320,0
0.7192989349365234,0.5022605895996094,0
0.7269041061401367,0.5116865158081054,0
0.7184635162353515,0.5157892227172851,0
0.7174306869506836,0.5143621444702148,0
0.7200920104980468,0.5165370941162110,0
0.7264926910400390,0.5105094909667969,0
0.7198888778686523,0.5144268035888672,0
0.7171405792236328,0.5173416137695312,0
0.7158004760742187,0.5113288879394531,0
0.7218852996826172,0.5258171081542968,0
0.7189384460449219,0.5228399276733399,0
0.7214870452880859,0.5153612136840821,0
0.7157644271850586,0.5187915802001953,0
0.7155029296875000,0.5166669845581054,0
0.7219934463500977,0.5190771102905273,0
0.7170112609863281,0.5190771102905273,0
0.7227458953857422,0.5195096969604492,0
0.7227458953857422,0.5271623611450195,0
0.7156385421752930,0.5194238662719727,0
0.7221382141113281,0.5159683227539062,0
0.7159046173095703,0.5174016952514648,0
0.7214384078979492,0.5174016952514648,0
0.7176155090332031,0.5193271636962891,0
0.7176155090332031,0.5131576538085937,0
0.7228231430053711,0.5275177001953125,0
0.7197257995605468,0.5242647171020508,0
0.7223024368286133,0.5162813186645507,0
0.7161380767822265,0.5135358810424805,0
0.7160442352294921,0.5181684494018555,0
0.7153936386108398,0.5199251174926758,0
0.7181636810302734,0.5138339996337891,0
0.7233301162719726,0.5171350479125977,0
0.7164499282836914,0.5258079528808594,0
0.7146148681640625,0.5203783035278320,0
0.7288398742675781,0.5145057678222656,0
0.7225376129150390,0.5211090087890625,0
0.7232122421264648,0.5206701278686523,0
0.7306823730468750,0.5165576934814453,0
0.7235698699951172,0.5286540985107422,0
0.7102317810058594,0.5286540985107422,0
0.7161775588989258,0.5195096969604492,0
0.7137531280517578,0.5195096969604492,0
0.7271301269531250,0.5123331069946289,0
0.7270883560180664,0.5123331069946289,0
0.7203065872192382,0.5176609039306640,0
0.7168842315673828,0.5176609039306640,0
0.7156133651733398,0.5099121093750000,0
0.7329895019531250,0.5099121093750000,0
0.7200342178344726,0.5235197067260742,0
0.7064649581909179,0.5235197067260742,0
0.7124387741088867,0.5139644622802734,0
0.7100309371948242,0.5139644622802734,0
0.7234743118286132,0.5072742462158203,0
0.7238685607910156,0.5072742462158203,0
0.7173986434936523,0.5135278701782227,0
0.7142995834350586,0.5135278701782227,0
0.7134853363037109,0.5068147659301757,0
0.7310811996459960,0.5068147659301757,0
0.7185070037841796,0.5215656280517578,0
0.7052610397338867,0.5215656280517578,0
0.7117595672607422,0.5127845764160156,0
0.7095079421997070,0.5127845764160156,0
0.7230468750000000,0.5069824218750000,0
0.7238834381103515,0.5069824218750000,0
0.7175800323486328,0.5137973785400390,0
0.7145736694335937,0.5137973785400390,0
0.7143213272094726,0.5076404571533203,0
0.7317770004272460,0.5076404571533203,0
0.7192697525024414,0.5227432250976562,0
0.7061296463012695,0.5227432250976562,0
0.7127477645874023,0.5140914916992188,0
0.7105424880981445,0.5140914916992188,0
0.7240133285522461,0.5087047576904297,0
0.7251846313476562,0.5087047576904297,0
0.7189310073852538,0.5158384323120117,0
0.7160064697265625,0.5158384323120117,0
0.7158823013305664,0.5097621917724610,0
0.7333236694335937,0.5097621917724610,0
0.7207992553710937,0.5251945495605469,0
0.7076276779174805,0.5251945495605469,0
0.7144226074218750,0.5164140701293946,0
0.7123111724853516,0.5164140701293946,0
0.7255542755126952,0.5112144470214843,0
0.7267896652221679,0.5112144470214843,0
0.7204673767089843,0.5179710388183594,0
0.7174249649047851,0.5179710388183594,0
0.7174810409545899,0.5116962432861328,0
0.7345825195312500,0.5116962432861328,0
0.7219745635986328,0.5269317626953125,0
0.7087223052978515,0.5269317626953125,0
0.7154457092285156,0.5176334381103516,0
0.7130475997924804,0.5176334381103516,0
0.7262060165405273,0.5120904922485351,0
0.7273664474487305,0.5120904922485351,0
0.7210493087768555,0.5187017440795898,0
0.7178895950317382,0.5187017440795898,0
0.7178054809570312,0.5121900558471679,0
0.7348520278930664,0.5121900558471679,0
0.7222412109374999,0.5273660659790039,0
0.7088836669921875,0.5273660659790039,0
0.7156053543090820,0.5178216934204102,0
0.7131465911865235,0.5178216934204102,0
0.7260910034179687,0.5122735977172851,0
0.7275403976440430,0.5122735977172851,0
0.7213394165039062,0.5191028594970702,0
0.7181791305541992,0.5191028594970702,0
0.7181270599365234,0.5127164840698242,0
0.7351570129394531,0.5127164840698242,0
0.7226171493530273,0.5280492782592773,0
0.7093019485473633,0.5280492782592773,0
0.7162216186523437,0.5185741424560547,0
0.7136089324951171,0.5185741424560547,0
0.7282756805419922,0.5131896972656250,0
0.7154708862304687,0.5204813003540039,0
0.7165786743164062,0.5196493148803710,0
0.7190351486206055,0.5315620422363281,0
0.7213485717773437,0.5204137802124024,0
0.7233753204345703,0.5169055938720702,0
0.7197612762451172,0.5171762466430664,0
0.7365468978881836,0.5171762466430664,0
0.7223928451538085,0.5199073791503906,0
0.7146995544433593,0.5199073791503906,0
0.7152482986450195,0.5200670242309570,0
0.7214595794677734,0.5200670242309570,0
0.7216506958007812,0.5177186965942383,0
0.7151882171630859,0.5177186965942383,0
0.7282150268554687,0.5170618057250976,0
0.7187610626220703,0.5170618057250976,0
0.7168190002441406,0.5126255035400390,0
0.7332830429077148,0.5126255035400390,0
0.7187232971191406,0.5146030426025391,0
0.7107210159301758,0.5146030426025391,0
0.7113807678222656,0.5147907257080078,0
0.7176698684692383,0.5147907257080078,0
0.7182043075561523,0.5126815795898437,0
0.7118511199951172,0.5126815795898437,0
0.7250885009765625,0.5127410888671875,0
0.7182077407836914,0.5127410888671875,0
0.7144031524658203,0.5091602325439453,0
0.7313489913940430,0.5091602325439453,0
0.7170724868774414,0.5122461318969727,0
0.7093791961669922,0.5122461318969727,0
0.7103862762451172,0.5137224197387695,0
0.7170461654663086,0.5137224197387695,0
0.7178066253662109,0.5120996475219727,0
0.7118219375610352,0.5120996475219727,0
0.7252080917358398,0.5127731323242187,0
0.7163063049316406,0.5127731323242187,0
0.7147476196289062,0.5095333099365235,0
0.7318885803222656,0.5095333099365235,0
0.7177179336547851,0.5131404876708984,0
0.7179267883300781,0.5140623092651367,0
0.7148122787475586,0.5140623092651367,0
0.7153982162475586,0.5077938079833985,0
0.7322582244873047,0.5077938079833985,0
0.7195518493652343,0.5237337112426758,0
0.7063156127929687,0.5237337112426758,0
0.7135797500610351,0.5139844894409179,0
0.7108354568481445,0.5139844894409179,0
0.7234937667846679,0.5090755462646485,0
0.7259016036987305,0.5090755462646485,0
0.7195489883422851,0.5163991928100585,0
0.7164201736450195,0.5163991928100585,0
0.7168893814086914,0.5100894927978515,0
0.7337087631225586,0.5100894927978515,0
0.7210784912109375,0.5259653091430664,0
0.7077627182006836,0.5259653091430664,0
0.7149639129638672,0.5158475875854492,0
0.7120777130126953,0.5158475875854492,0
0.7246404647827148,0.5106611251831055,0
0.7269115447998047,0.5106611251831055,0
0.7204221725463867,0.5176866531372070,0
0.7172344207763671,0.5176866531372070,0
0.7176870346069336,0.5110702514648438,0
0.7343799591064453,0.5110702514648438,0
0.7215986251831055,0.5266736984252930,0
0.7082427978515625,0.5266736984252930,0
0.7154874801635742,0.5162710189819336,0
0.7123477935791015,0.5162710189819336,0
0.7247148513793945,0.5110147476196288,0
0.7272188186645507,0.5110147476196288,0
0.7207620620727538,0.5179521560668945,0
0.7175107955932617,0.5179521560668945,0
0.7180606842041015,0.5113214492797852,0
0.7347656250000000,0.5113214492797852,0
0.7218481063842773,0.5270942687988281,0
0.7085369110107421,0.5270942687988281,0
0.7158113479614258,0.5167201995849610,0
0.7126962661743164,0.5167201995849610,0
0.7251491546630859,0.5116962432861328,0
0.7277143478393554,0.5116962432861328,0
0.7212066650390625,0.5187835693359375,0
0.7179914474487304,0.5187835693359375,0
0.7187175750732422,0.5121431350708008,0
0.7354248046874999,0.5121431350708008,0
0.7225736618041992,0.5281826019287109,0
0.7092453002929687,0.5281826019287109,0
0.7165712356567383,0.5179384231567382,0
0.7134893417358398,0.5179384231567382,0
0.7257751464843750,0.5128120422363281,0
0.7285795211791992,0.5128120422363281,0
0.7218578338623046,0.5197128295898438,0
0.7185653686523438,0.5197128295898438,0
0.7192010879516602,0.5125665664672852,0
0.7355020523071288,0.5125665664672852,0
0.7222984313964843,0.5275119781494141,0
0.7084676742553710,0.5275119781494141,0
0.7154399871826171,0.5157480239868164,0
0.7118116378784179,0.5157480239868164,0
0.7235961914062500,0.5094051361083984,0
0.7259691238403320,0.5094051361083984,0
0.7188709259033202,0.5150115966796874,0
0.7151882171630859,0.5150115966796874,0
0.7157152175903320,0.5071037292480468,0
0.7317409515380859,0.5071037292480468,0
0.7185007095336914,0.5219730377197266,0
0.7047426223754882,0.5219730377197266,0
0.7120988845825195,0.5106485366821288,0
0.7085655212402343,0.5106485366821288,0
0.7205423355102539,0.5050329208374024,0
0.7235120773315430,0.5050329208374024,0
0.7167068481445312,0.5118638992309570,0
0.7133337020874023,0.5118638992309570,0
0.7141839981079101,0.5049682617187500,0
0.7306325912475585,0.5049682617187500,0
0.7176698684692383,0.5206930160522460,0
0.7043563842773437,0.5206930160522460,0
0.7117710113525391,0.5101936340332031,0
0.7085432052612305,0.5101936340332031,0
0.7204650878906250,0.5051616668701172,0
0.7237209320068360,0.5051616668701172,0
0.7169431686401367,0.5123296737670898,0
0.7137874603271485,0.5123296737670898,0
0.7147024154663085,0.5058734893798827,0
0.7310863494873047,0.5058734893798827,0
0.7184091567993164,0.5218683242797851,0
0.7052513122558594,0.5218683242797851,0
0.7127534866333007,0.5116413116455077,0
0.7095376968383789,0.5116413116455077,0
0.7214063644409180,0.5068948745727538,0
0.7110712051391601,0.5068948745727538,0
0.7184291839599609,0.5143890380859375,0
0.7152900695800781,0.5143890380859375,0
0.7163709640502930,0.5081130981445312,0
0.7327383041381835,0.5081130981445312,0
0.7200799942016601,0.5242509841918945,0
0.7069478988647461,0.5242509841918945,0
0.7145290374755859,0.5139616012573242,0
0.7113092422485351,0.5139616012573242,0
0.7228591918945312,0.5090841293334961,0
0.7267015457153320,0.5090841293334961,0
0.7199289321899414,0.5164455413818360,0
0.7167428970336914,0.5164455413818360,0
0.7178621292114258,0.5098674774169921,0
0.7340520858764649,0.5098674774169921,0
0.7212598800659179,0.5257392883300781,0
0.7079011917114257,0.5257392883300781,0
0.7153976440429687,0.5150579452514649,0
0.7120193481445313,0.5150579452514649,0
0.7234926223754883,0.5098892211914062,0
0.7273750305175781,0.5098892211914062,0
0.7205183029174804,0.5170469284057617,0
0.7171657562255859,0.5170469284057617,0
0.7182106018066406,0.5102027893066406,0
0.7343776702880859,0.5102027893066406,0
0.7215316772460937,0.5260934829711914,0
0.7081935882568359,0.5260934829711914,0
0.7156488418579101,0.5152713775634765,0
0.7121978759765625,0.5152713775634765,0
0.7235841751098633,0.5102228164672852,0
0.7276931762695312,0.5102228164672852,0
0.7207666397094726,0.5174051284790039,0
0.7174627304077148,0.5174051284790039,0
0.7185453414916992,0.5107801437377929,0
0.7346797943115234,0.5107801437377929,0
0.7219425201416015,0.5267372131347656,0
0.7086639404296875,0.5267372131347656,0
0.7161907196044922,0.5160667419433593,0
0.7127168655395507,0.5160667419433593,0
0.7239852905273437,0.5111658096313476,0
0.7283740997314453,0.5111658096313476,0
0.7215042114257812,0.5186056137084961,0
0.7182340621948242,0.5186056137084961,0
0.7194293975830078,0.5119657516479492,0
0.7353807449340820,0.5119657516479492,0
0.7227699279785156,0.5281242370605469,0
0.7095623016357422,0.5281242370605469,0
0.7170610427856445,0.5172609329223633,0
0.7134819030761719,0.5172609329223633,0
0.7245763778686524,0.5120447158813476,0
0.7289783477783203,0.5120447158813476,0
0.7218366622924804,0.5187990188598632,0
0.7181825637817383,0.5187990188598632,0
0.7190082550048827,0.5109334945678711,0
0.7343124389648438,0.5109334945678711,0
0.7212770462036132,0.5256900787353516,0
0.7075309753417969,0.5256900787353516,0
0.7146308898925781,0.5134265899658202,0
0.7105882644653320,0.5134265899658202,0
0.7212232589721680,0.5071535110473633,0
0.7255411148071289,0.5071535110473633,0
0.7181241989135742,0.5132852554321289,0
0.7144180297851562,0.5132852554321289,0
0.7153512954711914,0.5055667877197265,0
0.7306869506835937,0.5055667877197265,0
0.7179857254028320,0.5208806991577148,0
0.7046047210693359,0.5208806991577148,0
0.7119501113891601,0.5095693588256835,0
0.7082588195800781,0.5095693588256835,0
0.7190471649169922,0.5042335510253906,0
0.7238250732421875,0.5042335510253906,0
0.7166587829589843,0.5113975524902343,0
0.7133285522460937,0.5113975524902343,0
0.7145868301391601,0.5044887542724609,0
0.7300065994262696,0.5044887542724609,0
0.7176527023315430,0.5204732894897460,0
0.7044593811035156,0.5204732894897460,0
0.7119941711425781,0.5096174240112304,0
0.7084012985229492,0.5096174240112304,0
0.7192405700683594,0.5047027587890625,0
0.7242387771606446,0.5047027587890625,0
0.7172103881835937,0.5122484207153321,0
0.7140020370483399,0.5122484207153321,0
0.7153398513793945,0.5056566238403321,0
0.7307350158691406,0.5056566238403321,0
0.7184926986694335,0.5218643188476563,0
0.7054721832275390,0.5218643188476563,0
0.7131540298461914,0.5113014221191406,0
0.7096796035766602,0.5113014221191406,0
0.7205062866210937,0.5066522598266602,0
0.7257963180541992,0.5066522598266602,0
0.7186958312988281,0.5143438339233398,0
0.7154851913452148,0.5143438339233398,0
0.7169094085693359,0.5078315734863281,0
0.7322004318237304,0.5078315734863281,0
0.7200754165649413,0.5240587234497071,0
0.7069759368896484,0.5240587234497071,0
0.7146423339843749,0.5132497787475586,0
0.7110134124755859,0.5132497787475586,0
0.7218561172485352,0.5084243774414062,0
0.7270935058593749,0.5084243774414062,0
0.7198156356811524,0.5158630371093750,0
0.7165300369262695,0.5158630371093750,0
0.7178318023681640,0.5089771270751953,0
0.7329288482666015,0.5089771270751953,0
0.7207128524780273,0.5248706817626952,0
0.7075716018676758,0.5248706817626952,0
0.7152156829833984,0.5139472961425781,0
0.7113824844360351,0.5139472961425781,0
0.7220930099487305,0.5088912963867187,0
0.7274894714355469,0.5088912963867187,0
0.7200857162475586,0.5161777496337890,0
0.7167406082153320,0.5161777496337890,0
0.7181041717529296,0.5092374801635742,0
0.7330450057983399,0.5092374801635742,0
0.7209148406982422,0.5252265930175781,0
0.7078725814819335,0.5252265930175781,0
0.7154474258422852,0.5142992019653320,0
0.7116977691650390,0.5142992019653320,0
0.7223493576049804,0.5093238830566406,0
0.7278482437133789,0.5093238830566406,0
0.7204364776611328,0.5167436599731445,0
0.7171079635620117,0.5167436599731445,0
0.7184703826904296,0.5100185394287109,0
0.7333929061889648,0.5100185394287109,0
0.7215105056762695,0.5260826110839844,0
0.7083829879760742,0.5260826110839844,0
0.7160802841186523,0.5152925491333008,0
0.7122802734375000,0.5152925491333008,0
0.7230520248413086,0.5104774475097656,0
0.7287002563476562,0.5104774475097656,0
0.7212930679321289,0.5181638717651367,0
0.7180063247680664,0.5181638717651367,0
0.7194488525390624,0.5114564895629883,0
0.7342723846435547,0.5114564895629883,0
0.7224163055419922,0.5276407241821289,0
0.7093923568725585,0.5276407241821289,0
0.7171165466308593,0.5169061660766602,0
0.7133068084716797,0.5169061660766602,0
0.7240814208984375,0.5119571685791016,0
0.7297594070434570,0.5119571685791016,0
0.7221519470214843,0.5192642211914062,0
0.7186397552490235,0.5192642211914062,0
0.7199907302856445,0.5118352890014648,0
0.7342168807983398,0.5118352890014648,0
0.7219539642333984,0.5267646789550781,0
0.7085540771484374,0.5267646789550781,0
0.7156946182250976,0.5145441055297851,0
0.7113704681396484,0.5145441055297851,0
0.7215620040893554,0.5082658767700196,0
0.7268869400024414,0.5082658767700196,0
0.7188714981079102,0.5143444061279296,0
0.7150909423828125,0.5143444061279296,0
0.7161518096923828,0.5064216613769531,0
0.7303184509277344,0.5064216613769531,0
0.7183622360229492,0.5214408874511719,0
0.7050264358520507,0.5214408874511719,0
0.7124153137207031,0.5097959518432617,0
0.7084173202514649,0.5097959518432617,0
0.7188148498535156,0.5044115066528320,0
0.7245981216430664,0.5044115066528320,0
0.7169551849365234,0.5116155624389648,0
0.7135889053344726,0.5116155624389648,0
0.7149965286254882,0.5046764373779297,0
0.7293577194213867,0.5046764373779297,0
0.7176561355590820,0.5206180572509765,0
0.7047054290771484,0.5206180572509765,0
0.7124296188354492,0.5097003936767578,0
0.7085655212402343,0.5097003936767578,0
0.7251119613647461,0.5048309326171875,0
0.7097568511962891,0.5166807174682617,0
0.7199449539184570,0.5113517761230468,0
0.7155807495117187,0.5113517761230468,0
0.7238079071044922,0.5125991821289062,0
0.7156797409057617,0.5125991821289062,0
0.7134372711181640,0.5079837799072265,0
0.7314485549926758,0.5079837799072265,0
0.7182500839233398,0.5132314682006835,0
0.7075143814086914,0.5132314682006835,0
0.7111289978027343,0.5188539505004882,0
0.7172143936157226,0.5188539505004882,0
0.7214813232421875,0.5136268615722656,0
0.7171777725219727,0.5136268615722656,0
0.7252595901489257,0.5148839950561523,0
0.7173030853271484,0.5148839950561523,0
0.7149805068969727,0.5102600097656250,0
0.7329832077026367,0.5102600097656250,0
0.7197315216064453,0.5153949737548827,0
0.7088813781738281,0.5153949737548827,0
0.7125143051147461,0.5208801269531250,0
0.7184926986694335,0.5208801269531250,0
0.7228088378906250,0.5152770996093750,0
0.7183822631835938,0.5152770996093750,0
0.7261264801025390,0.5162778854370117,0
0.7180635452270507,0.5162778854370117,0
0.7156471252441406,0.5113477706909180,0
0.7335542678833008,0.5113477706909180,0
0.7202774047851562,0.5161600112915039,0
0.7092910766601562,0.5161600112915039,0
0.7128725051879883,0.5214420318603515,0
0.7186700820922851,0.5214420318603515,0
0.7231876373291015,0.5156152725219726,0
0.7187662124633789,0.5156152725219726,0
0.7262575149536132,0.5166028976440430,0
0.7182912826538086,0.5166028976440430,0
0.7159206390380859,0.5116104125976563,0
0.7338123321533203,0.5116104125976563,0
0.7205858230590820,0.5165834426879883,0
0.7095399856567383,0.5165834426879883,0
0.7132295608520508,0.5220417022705078,0
0.7190689086914063,0.5220417022705078,0
0.7236019134521484,0.5162458419799805,0
0.7192897796630859,0.5162458419799805,0
0.7265756607055663,0.5173204421997070,0
0.7187982559204101,0.5173204421997070,0
0.7163377761840820,0.5124853134155273,0
0.7343107223510742,0.5124853134155273,0
0.7211254119873046,0.5175527572631836,0
0.7101282119750977,0.5175527572631836,0
0.7198814392089844,0.5233091354370117,0
0.7217771530151367,0.5186204910278320,0
0.7200645446777344,0.5296085357666015,0
0.7226755142211914,0.5186994552612304,0
0.7098976135253906,0.5280172348022460,0
0.7175182342529297,0.5172832489013671,0
0.7239423751831054,0.5094800949096679,0
0.7307699203491210,0.5126037597656250,0
0.7194156646728516,0.5202604293823242,0
0.7211299896240234,0.5133865356445312,0
0.7283042907714844,0.5202667236328125,0
0.7180297851562499,0.5270599365234375,0
0.7232740402221679,0.5189151763916016,0
0.7120674133300781,0.5207050323486327,0
0.7160396575927734,0.5265489578247070,0
0.7267210006713867,0.5206226348876953,0
0.7222452163696289,0.5327682495117188,0
0.7247886657714844,0.5218877792358398,0
0.7371780395507812,0.5169181823730469,0
0.7196062088012695,0.5203840255737304,0
0.7259342193603515,0.5155603408813476,0
0.7170192718505859,0.5280801773071289,0
0.7277830123901367,0.5115457534790039,0
0.7300048828125000,0.5170703887939453,0
0.7225851058959961,0.5231214523315429,0
0.7205354690551757,0.5181787490844726,0
