REDsignal,IRsignal,synced
0.6040431976318359,0.3952875137329102,0
0.6046709060668946,0.3952875137329102,0
0.6043584823608398,0.3953527450561523,0
0.6043292999267578,0.3953527450561523,0
0.6041999816894531,0.3958379745483399,0
0.6042812347412109,0.3958379745483399,0
0.6053375244140625,0.3958677291870117,0
0.6050222396850585,0.3958677291870117,0
0.6048992156982421,0.3960342407226562,0
0.6051303863525390,0.3960342407226562,0
0.6050823211669921,0.3963512420654297,0
0.6056230545043945,0.3963512420654297,0
0.6053546905517578,0.3963369369506836,0
0.6052093505859375,0.3963369369506836,0
0.6051538467407226,0.3968862533569336,0
0.6052482604980468,0.3968862533569336,0
0.6061700820922852,0.3968038558959961,0
0.6058490753173827,0.3968038558959961,0
0.6057014465332031,0.3969663619995117,0
0.6059211730957031,0.3969663619995117,0
0.6058713912963867,0.3972015380859375,0
0.6063978195190429,0.3972015380859375,0
0.6060596466064453,0.3971900939941406,0
0.6059005737304687,0.3971900939941406,0
0.6057855606079101,0.3976438522338867,0
0.6058856964111328,0.3976438522338867,0
0.6069047927856445,0.3975820541381836,0
0.6065288543701172,0.3975820541381836,0
0.6063142776489258,0.3976387023925781,0
0.6065883636474609,0.3976387023925781,0
0.6065465927124023,0.3978286743164062,0
0.6070713043212891,0.3978286743164062,0
0.6066896438598632,0.3977680206298828,0
0.6065591812133789,0.3977680206298828,0
0.6063634872436523,0.3982006072998047,0
0.6063806533813476,0.3982006072998047,0
0.6073419570922851,0.3980913162231445,0
0.6069791793823242,0.3980913162231445,0
0.6067502975463867,0.3981674194335937,0
0.6069677352905273,0.3981674194335937,0
0.6069128036499023,0.3983270645141602,0
0.6074157714843750,0.3983270645141602,0
0.6070621490478515,0.3981542587280273,0
0.6068881988525391,0.3981542587280273,0
0.6067628860473633,0.3986137390136719,0
0.6067611694335937,0.3986137390136719,0
0.6077299118041992,0.3985084533691406,0
0.6073345184326172,0.3985084533691406,0
0.6071113586425781,0.3985507965087891,0
0.6073877334594726,0.3985507965087891,0
0.6072223663330077,0.3987024307250976,0
0.6077991485595703,0.3987024307250976,0
0.6073659896850586,0.3985536575317383,0
0.6072063446044922,0.3985536575317383,0
0.6070415496826171,0.3990056991577148,0
0.6071273803710937,0.3990056991577148,0
0.6079908370971679,0.3988912582397461,0
0.6076251983642578,0.3988912582397461,0
0.6074438095092773,0.3989370346069336,0
0.6076675415039062,0.3989370346069336,0
0.6075571060180663,0.3991493225097656,0
0.6081218719482422,0.3991493225097656,0
0.6077293395996094,0.3989530563354492,0
0.6075874328613281,0.3989530563354492,0
0.6075170516967773,0.3994291305541992,0
0.6074695587158203,0.3994291305541992,0
0.6083667755126952,0.3992837905883789,0
0.6079193115234375,0.3992837905883789,0
0.6077356338500977,0.3991905212402344,0
0.6078712463378906,0.3991905212402344,0
0.6076234817504883,0.3991292953491211,0
0.6079570770263671,0.3991292953491211,0
0.6073104858398437,0.3983528137207031,0
0.6067285537719727,0.3983528137207031,0
0.6062198638916015,0.3980627059936523,0
0.6056762695312500,0.3980627059936523,0
0.6059652328491211,0.3966144561767578,0
0.6048809051513672,0.3966144561767578,0
0.6039562225341797,0.3950517654418945,0
0.6031705856323242,0.3950517654418945,0
0.6020015716552735,0.3929929733276367,0
0.6012125015258789,0.3929929733276367,0
0.5996526718139649,0.3900901794433594,0
0.5981323242187500,0.3900901794433594,0
0.5969478607177734,0.3880748748779297,0
0.5958211898803710,0.3880748748779297,0
0.5957382202148437,0.3857648849487305,0
0.5944576263427734,0.3857648849487305,0
0.5936588287353516,0.3842920303344726,0
0.5933727264404297,0.3842920303344726,0
0.5930265426635742,0.3837072372436524,0
0.5934225082397461,0.3837072372436524,0
0.5930437088012696,0.3834165573120117,0
0.5931152343750000,0.3835081100463867,0
0.5937561035156250,0.3849695205688476,0
0.5946710586547851,0.3853031158447265,0
0.5970342636108398,0.3873012542724609,0
0.5972282409667968,0.3886316299438476,0
0.5979103088378906,0.3887804031372070,0
0.5985282897949219,0.3890275955200195,0
0.5986221313476562,0.3890527725219726,0
0.5990678787231445,0.3899019241333008,0
0.5997905731201172,0.3899019241333008,0
0.5996074676513672,0.3901199340820312,0
0.5999467849731445,0.3904014587402344,0
0.6007324218750000,0.3908998489379883,0
0.6007587432861328,0.3910148620605469,0
0.6006036758422851,0.3915040969848633,0
0.6006328582763671,0.3919063568115234,0
0.6018596649169922,0.3921466827392578,0
0.6016468048095703,0.3921340942382812,0
0.6019609451293945,0.3925306320190430,0
0.6015844345092773,0.3930742263793945,0
0.6025972366333008,0.3929964065551758,0
0.6023185729980468,0.3933202743530274,0
0.6021846771240235,0.3935657501220703,0
0.6022968292236328,0.3937150955200195,0
0.6031127929687500,0.3935829162597656,0
0.6026441574096679,0.3936561584472656,0
0.6024724960327148,0.3937992095947265,0
0.6031906127929687,0.3936338424682617,0
0.6027774810791016,0.3936504364013672,0
0.6027723312377929,0.3936223983764648,0
0.6024782180786132,0.3940240859985352,0
0.6031517028808594,0.3936258316040039,0
0.6026430130004883,0.3933986663818359,0
0.6023752212524414,0.3939886093139648,0
0.6026332855224609,0.3939886093139648,0
0.6027099609375000,0.3937042236328125,0
0.6027099609375000,0.3934673309326172,0
0.6025800704956055,0.3941574096679688,0
0.6033708572387695,0.3939256668090820,0
0.6031099319458008,0.3939416885375976,0
0.6031345367431641,0.3941087722778320,0
0.6031808853149414,0.3945133209228516,0
0.6034320831298828,0.3944068908691406,0
0.6036546707153320,0.3945934295654297,0
0.6033491134643555,0.3951644897460938,0
0.6042463302612304,0.3949544906616211,0
0.6038549423217773,0.3952577590942383,0
0.6038932800292969,0.3954608917236328,0
0.6038932800292969,0.3956474304199218,0
0.6047521591186523,0.3955656051635742,0
0.6044065475463867,0.3958768844604492,0
0.6044454574584961,0.3961103439331055,0
0.6044036865234375,0.3962985992431641,0
0.6050559997558593,0.3961080551147461,0
0.6049604415893555,0.3958871841430664,0
0.6048591613769531,0.3967214584350586,0
0.6049272537231445,0.3967214584350586,0
0.6054164886474609,0.3965887069702148,0
0.6053197860717773,0.3964468002319336,0
0.6053123474121094,0.3972335815429687,0
0.6055154800415039,0.3972112655639649,0
0.6057323455810547,0.3970218658447265,0
0.6057323455810547,0.3967552185058594,0
0.6056236267089844,0.3976415634155273,0
0.6058616638183594,0.3975088119506836,0
0.6060796737670898,0.3976146697998047,0
0.6059194564819336,0.3971700668334961,0
0.6059532165527344,0.3980215072631836,0
0.6061380386352538,0.3977005004882813,0
0.6063371658325195,0.3973777770996094,0
0.6061798095703125,0.3973777770996094,0
0.6062376022338867,0.3981948852539062,0
0.6064584732055663,0.3979425430297852,0
0.6065631866455078,0.3976856231689453,0
0.6065860748291015,0.3976856231689453,0
0.6064315795898437,0.3985010147094726,0
0.6071199417114258,0.3981702804565430,0
0.6067457199096680,0.3983087539672852,0
0.6066089630126953,0.3984609603881836,0
0.6066123962402343,0.3986715316772461,0
0.6072738647460937,0.3983350753784179,0
0.6069574356079102,0.3985565185546875,0
0.6068035125732422,0.3987258911132812,0
0.6068178176879883,0.3989261627197265,0
0.6071920394897461,0.3985496520996094,0
0.6070959091186523,0.3982017517089844,0
0.6069997787475586,0.3988620758056641,0
0.6069952011108398,0.3990858078002930,0
0.6073184967041015,0.3987173080444336,0
0.6072772979736328,0.3984598159790039,0
0.6071886062622071,0.3992946624755859,0
0.6073654174804687,0.3992946624755859,0
0.6074695587158203,0.3989381790161133,0
0.6074260711669922,0.3986383438110351,0
0.6072910308837890,0.3994869232177734,0
0.6074964523315429,0.3994869232177734,0
0.6075582504272461,0.3990955352783203,0
0.6075582504272461,0.3988065719604492,0
0.6073534011840820,0.3993993759155273,0
0.6073179244995117,0.3990549087524414,0
0.6068876266479492,0.3983791351318359,0
0.6064321517944335,0.3979179382324219,0
0.6053489685058594,0.3978984832763672,0
0.6055841445922852,0.3971248626708984,0
0.6042858123779297,0.3955827713012695,0
0.6032421112060546,0.3951919555664062,0
0.6013286590576171,0.3940675735473633,0
0.6016050338745117,0.3925626754760742,0
0.5992687225341796,0.3897514343261719,0
0.5981620788574219,0.3897514343261719,0
0.5963602066040039,0.3884010314941406,0
0.5963602066040039,0.3872188568115234,0
0.5945720672607422,0.3849689483642578,0
0.5943883895874024,0.3853494644165039,0
0.5941972732543945,0.3851766586303711,0
0.5943717956542969,0.3854198455810547,0
0.5945497512817383,0.3849363327026367,0
0.5951442718505859,0.3863319396972656,0
0.5952987670898438,0.3865522384643554,0
0.5961599349975586,0.3871948242187500,0
0.5964288711547852,0.3867444992065430,0
0.5972316741943359,0.3884233474731445,0
0.5973684310913085,0.3884050369262695,0
0.5980482101440430,0.3886430740356445,0
0.5984029769897461,0.3889291763305664,0
0.5989414215087890,0.3900650024414062,0
0.5989414215087890,0.3899551391601562,0
0.5994009017944336,0.3899940490722656,0
0.5996000289916992,0.3901445388793945,0
0.6000068664550781,0.3911613464355468,0
0.6005641937255859,0.3910017013549805,0
0.6004234313964844,0.3908592224121094,0
0.6005870819091796,0.3914686203002929,0
0.6008491516113281,0.3920179367065429,0
0.6014030456542968,0.3920179367065429,0
0.6015581130981446,0.3920774459838867,0
0.6015581130981446,0.3925415039062500,0
0.6019334793090820,0.3931354522705078,0
0.6024644851684570,0.3932281494140625,0
0.6025136947631836,0.3932046890258789,0
0.6027437210083008,0.3935817718505859,0
0.6032850265502929,0.3940114974975586,0
0.6031774520874024,0.3940183639526367,0
0.6030990600585937,0.3942352294921875,0
0.6032323837280273,0.3942352294921875,0
0.6036340713500976,0.3944858551025390,0
0.6035081863403320,0.3944326400756836,0
0.6033113479614257,0.3944011688232422,0
0.6032215118408203,0.3947364807128906,0
0.6035282135009765,0.3944623947143555,0
0.6032850265502929,0.3944623947143555,0
0.6032043457031250,0.3946809768676758,0
0.6031265258789062,0.3949241638183594,0
0.6034589767456054,0.3943725585937500,0
0.6032318115234375,0.3942901611328125,0
0.6030406951904297,0.3946769714355469,0
0.6030406951904297,0.3945259094238281,0
0.6034824371337890,0.3945259094238281,0
0.6031705856323242,0.3941419601440430,0
0.6031396865844726,0.3941419601440430,0
0.6032197952270507,0.3950826644897461,0
0.6032621383666992,0.3950826644897461,0
0.6037336349487304,0.3947284698486328,0
0.6034458160400390,0.3947284698486328,0
0.6036203384399413,0.3948766708374024,0
0.6038343429565429,0.3948766708374024,0
0.6037565231323242,0.3952142715454102,0
0.6042257308959961,0.3952142715454102,0
0.6039327621459961,0.3949367523193359,0
0.6040975570678710,0.3949367523193359,0
0.6041193008422852,0.3960731506347656,0
0.6041044235229492,0.3960731506347656,0
0.6046216964721679,0.3957721710205078,0
0.6044380187988281,0.3957721710205078,0
0.6046010971069335,0.3959701538085937,0
0.6047744750976562,0.3959701538085937,0
0.6047212600708007,0.3963094711303711,0
0.6052007675170898,0.3963094711303711,0
0.6049123764038086,0.3960199356079102,0
0.6049318313598633,0.3960199356079102,0
0.6050062179565430,0.3971483230590820,0
0.6050416946411132,0.3971483230590820,0
0.6054908752441406,0.3967420578002930,0
0.6052539825439452,0.3967420578002930,0
0.6055435180664063,0.3969297409057617,0
0.6056671142578125,0.3969297409057617,0
0.6056064605712891,0.3972696304321289,0
0.6060092926025390,0.3972696304321289,0
0.6057769775390625,0.3970287322998047,0
0.6057523727416992,0.3970287322998047,0
0.6058462142944335,0.3980489730834961,0
0.6058198928833007,0.3980489730834961,0
0.6063228607177734,0.3976472854614257,0
0.6060756683349610,0.3976472854614257,0
0.6062067031860351,0.3977005004882813,0
0.6062061309814453,0.3977005004882813,0
0.6062318801879882,0.3980232238769531,0
0.6066684722900391,0.3980232238769531,0
0.6063045501708985,0.3976449966430664,0
0.6063280105590820,0.3976449966430664,0
0.6064413070678710,0.3986434936523438,0
0.6063617706298828,0.3986434936523438,0
0.6068109512329102,0.3981668472290039,0
0.6065917968750000,0.3981668472290039,0
0.6067302703857421,0.3983488082885742,0
0.6067800521850586,0.3983488082885742,0
0.6067079544067383,0.3985256195068359,0
0.6071210861206054,0.3985256195068359,0
0.6068384170532226,0.3981588363647461,0
0.6067794799804688,0.3981588363647461,0
0.6069013595581054,0.3991607666015625,0
0.6068052291870117,0.3991607666015625,0
0.6071033477783203,0.3986417770385742,0
0.6068922042846679,0.3986417770385742,0
0.6071296691894531,0.3986818313598633,0
0.6072389602661132,0.3986818313598633,0
0.6070312500000000,0.3988861083984375,0
0.6074678421020507,0.3988861083984375,0
0.6072029113769531,0.3985164642333984,0
0.6071937561035156,0.3985164642333984,0
0.6072120666503906,0.3995109558105469,0
0.6071525573730469,0.3995109558105469,0
0.6074850082397460,0.3989959716796875,0
0.6072727203369140,0.3989959716796875,0
0.6074312210083007,0.3990898132324219,0
0.6075490951538086,0.3990898132324219,0
0.6073923110961914,0.3993415832519531,0
0.6077917098999023,0.3993415832519531,0
0.6074478149414062,0.3988615036010742,0
0.6074272155761719,0.3988615036010742,0
0.6075885772705077,0.3998823165893555,0
0.6075244903564453,0.3998823165893555,0
0.6077985763549805,0.3993827819824219,0
0.6075622558593750,0.3993827819824219,0
0.6077087402343749,0.3993701934814453,0
0.6077253341674804,0.3993701934814453,0
0.6074632644653321,0.3992849349975586,0
0.6076017379760742,0.3992849349975586,0
0.6070083618164063,0.3984031677246094,0
0.6066576004028320,0.3984031677246094,0
0.6063457489013672,0.3985931396484375,0
0.6058170318603515,0.3985931396484375,0
0.6056001663208007,0.3970138549804688,0
0.6046937942504883,0.3970138549804688,0
0.6042737960815430,0.3956371307373047,0
0.6035367965698242,0.3956371307373047,0
0.6025503158569335,0.3940607070922851,0
0.6004423141479492,0.3929122924804687,0
0.5988378524780273,0.3908929824829102,0
0.5987417221069335,0.3905176162719726,0
0.5973289489746093,0.3892799377441406,0
0.5966417312622070,0.3875278472900390,0
0.5962251663208008,0.3875278472900390,0
0.5959968566894531,0.3879020690917969,0
0.5957851409912109,0.3879020690917969,0
0.5960311889648438,0.3872869491577148,0
0.5959241867065429,0.3872869491577148,0
0.5963075637817382,0.3876737594604492,0
0.5966920852661133,0.3876737594604492,0
0.5967481613159179,0.3883655548095703,0
0.5974765777587890,0.3883655548095703,0
0.5975234985351562,0.3885852813720703,0
0.5978307723999023,0.3885852813720703,0
0.5982822418212891,0.3902463912963867,0
0.5985397338867188,0.3902463912963867,0
0.5989992141723632,0.3903144836425781,0
0.5991250991821289,0.3903144836425781,0
0.5996435165405273,0.3908277511596679,0
0.5999221801757812,0.3908277511596679,0
0.5999708175659180,0.3914371490478515,0
0.6004577636718750,0.3914371490478515,0
0.6003530502319335,0.3913490295410156,0
0.6005167007446289,0.3913490295410156,0
0.6007587432861328,0.3926279067993164,0
0.6008394241333007,0.3926279067993164,0
0.6010517120361328,0.3924161911010742,0
0.6010946273803711,0.3924161911010742,0
0.6014837265014649,0.3928241729736328,0
0.6017944335937500,0.3928241729736328,0
0.6017234802246093,0.3933597564697265,0
0.6022424697875977,0.3933597564697265,0
0.6022430419921875,0.3933214187622070,0
0.6024833679199219,0.3933214187622070,0
0.6026218414306640,0.3947204589843750,0
0.6027786254882812,0.3947204589843750,0
0.6030744552612305,0.3944686889648437,0
0.6030321121215820,0.3944686889648437,0
0.6033805847167969,0.3948160171508789,0
0.6036146163940429,0.3948160171508789,0
0.6036300659179688,0.3952262878417969,0
0.6040185928344727,0.3952262878417969,0
0.6037548065185546,0.3950128555297852,0
0.6038778305053710,0.3950128555297852,0
0.6039733886718750,0.3961034774780273,0
0.6038824081420898,0.3961034774780273,0
0.6041147232055664,0.3955764770507812,0
0.6038829803466796,0.3955764770507812,0
0.6042039871215820,0.3956405639648438,0
0.6042675018310547,0.3956405639648438,0
0.6041084289550781,0.3957183837890625,0
0.6043624877929688,0.3957183837890625,0
0.6040243148803711,0.3952262878417969,0
0.6040420532226562,0.3952262878417969,0
0.6039859771728515,0.3960285186767578,0
0.6038343429565429,0.3960285186767578,0
0.6039253234863281,0.3953962326049805,0
0.6037679672241211,0.3953962326049805,0
0.6039739608764648,0.3954505920410156,0
0.6039825439453125,0.3954505920410156,0
0.6038280487060547,0.3955438613891601,0
0.6041450500488281,0.3955438613891601,0
0.6038658142089843,0.3951141357421875,0
0.6039836883544921,0.3951141357421875,0
0.6040065765380859,0.3962047576904297,0
0.6039150238037109,0.3962047576904297,0
0.6040403366088867,0.3956634521484375,0
0.6039876937866211,0.3956634521484375,0
0.6042892456054687,0.3958465576171875,0
0.6044397354125977,0.3958465576171875,0
0.6043750762939453,0.3961143493652344,0
0.6047023773193360,0.3961143493652344,0
0.6045049667358399,0.3958465576171875,0
0.6046182632446289,0.3958465576171875,0
0.6047121047973633,0.3969686508178711,0
0.6046823501586914,0.3969686508178711,0
0.6047927856445312,0.3965423583984375,0
0.6047790527343749,0.3965423583984375,0
0.6052053451538085,0.3967443466186523,0
0.6054021835327148,0.3967443466186523,0
0.6052242279052734,0.3971952438354492,0
0.6056287765502929,0.3971952438354492,0
0.6053638458251953,0.3968587875366211,0
0.6055177688598633,0.3968587875366211,0
0.6056121826171875,0.3979545593261719,0
0.6055652618408203,0.3979545593261719,0
0.6056957244873047,0.3974990844726562,0
0.6055847167968750,0.3974990844726562,0
0.6060390472412109,0.3977474212646484,0
0.6061500549316406,0.3977474212646484,0
0.6060607910156249,0.3980089187622070,0
0.6063835144042968,0.3980089187622070,0
0.6060825347900390,0.3976684570312500,0
0.6062404632568359,0.3976684570312500,0
0.6063468933105468,0.3988042831420898,0
0.6063159942626953,0.3988042831420898,0
0.6063337326049805,0.3982006072998047,0
0.6062376022338867,0.3982006072998047,0
0.6066467285156250,0.3984071731567383,0
0.6067337036132813,0.3984071731567383,0
0.6065769195556641,0.3985960006713867,0
0.6068590164184570,0.3985960006713867,0
0.6066862106323242,0.3983196258544922,0
0.6067886352539062,0.3983196258544922,0
0.6068338394165039,0.3993066787719726,0
0.6067520141601562,0.3993066787719726,0
0.6068149566650390,0.3987499237060547,0
0.6066976547241211,0.3987499237060547,0
0.6071159362792968,0.3988311767578125,0
0.6072126388549804,0.3988311767578125,0
0.6070449829101562,0.3990921020507812,0
0.6070529937744140,0.3990921020507812,0
0.6070323944091797,0.3987407684326172,0
0.6071296691894531,0.3987407684326172,0
0.6072132110595703,0.3997323989868164,0
0.6070850372314452,0.3997323989868164,0
0.6071147918701172,0.3991498947143555,0
0.6070089340209961,0.3991498947143555,0
0.6074335098266601,0.3992546081542969,0
0.6075056076049804,0.3992546081542969,0
0.6073814392089844,0.3994331359863281,0
0.6075897216796875,0.3994331359863281,0
0.6073974609375000,0.3990526199340820,0
0.6075307846069335,0.3990526199340820,0
0.6075531005859375,0.4001077651977539,0
0.6074621200561523,0.4001077651977539,0
0.6074426651000976,0.3995023727416992,0
0.6073471069335937,0.3995023727416992,0
0.6077825546264648,0.3996276855468750,0
0.6078729629516602,0.3996276855468750,0
0.6076721191406250,0.3998348236083984,0
0.6079450607299804,0.3998348236083984,0
0.6077207565307617,0.3994239807128906,0
0.6077699661254883,0.3994239807128906,0
0.6077762603759765,0.4002731323242187,0
0.6075284957885742,0.4002731323242187,0
0.6073110580444335,0.3993427276611328,0
0.6069299697875976,0.3993427276611328,0
0.6071348190307617,0.3988557815551758,0
0.6067909240722656,0.3988557815551758,0
0.6061557769775391,0.3980695724487305,0
0.6058519363403320,0.3980695724487305,0
0.6050760269165039,0.3966058731079101,0
0.6045867919921875,0.3966058731079101,0
0.6038858413696289,0.3961212158203125,0
0.6029251098632812,0.3961212158203125,0
0.6020170211791992,0.3936927795410156,0
0.6009315490722656,0.3936927795410156,0
0.6005109786987305,0.3918731689453125,0
0.5995685577392578,0.3918731689453125,0
0.5986278533935546,0.3903213500976562,0
0.5981643676757812,0.3903213500976562,0
0.5974210739135742,0.3887414932250977,0
0.5971498489379883,0.3887414932250977,0
0.5968837738037109,0.3890991210937500,0
0.5966691970825195,0.3890991210937500,0
0.5966669082641601,0.3884405136108398,0
0.5966840744018554,0.3884405136108398,0
0.5973243713378906,0.3888256072998047,0
0.5976030349731445,0.3888256072998047,0
0.5976831436157226,0.3894538879394531,0
0.5982622146606446,0.3894538879394531,0
0.5983520507812500,0.3897640228271484,0
0.5988435745239258,0.3897640228271484,0
0.5991090774536133,0.3912580490112305,0
0.5992835998535156,0.3912580490112305,0
0.5995502471923828,0.3912340164184570,0
0.5996915817260742,0.3912340164184570,0
0.6004205703735351,0.3917587280273437,0
0.6006385803222656,0.3917587280273437,0
0.6007038116455078,0.3922988891601563,0
0.6010700225830078,0.3922988891601563,0
0.6009824752807617,0.3923086166381836,0
0.6012880325317382,0.3923086166381836,0
0.6014802932739257,0.3935022354125977,0
0.6014184951782227,0.3935022354125977,0
0.6014780044555664,0.3932744979858399,0
0.6015621185302734,0.3932744979858399,0
0.6022155761718749,0.3936601638793945,0
0.6023735046386719,0.3936601638793945,0
0.6022602081298828,0.3941659927368164,0
0.6026647567749023,0.3941659927368164,0
0.6026567459106446,0.3942094802856445,0
0.6030652999877929,0.3942094802856445,0
0.6031545639038086,0.3954975128173828,0
0.6032506942749023,0.3954975128173828,0
0.6032873153686523,0.3952651977539062,0
0.6033205032348633,0.3952651977539062,0
0.6039396286010742,0.3955575942993164,0
0.6040466308593749,0.3955575942993164,0
0.6040105819702148,0.3959278106689453,0
0.6043092727661132,0.3959278106689453,0
0.6041353225708007,0.3958070755004883,0
0.6043687820434570,0.3958070755004883,0
0.6043910980224609,0.3967552185058594,0
0.6042383193969726,0.3967552185058594,0
0.6041267395019531,0.3962242126464844,0
0.6040431976318359,0.3962242126464844,0
0.6046651840209961,0.3962327957153320,0
0.6046308517456055,0.3962327957153320,0
0.6044122695922851,0.3963415145874024,0
0.6045558929443359,0.3963415145874024,0
0.6043447494506836,0.3959449768066406,0
0.6044757843017577,0.3959449768066406,0
0.6043859481811523,0.3967454910278320,0
0.6041765213012695,0.3967454910278320,0
0.6040523529052734,0.3960794448852539,0
0.6039482116699219,0.3960794448852539,0
0.6045026779174805,0.3961143493652344,0
0.6044368743896484,0.3961143493652344,0
0.6041851043701172,0.3961824417114257,0
0.6043796539306641,0.3961824417114257,0
0.6042205810546875,0.3958740234375000,0
0.6044065475463867,0.3958740234375000,0
0.6043767929077148,0.3967580795288086,0
0.6043006896972656,0.3967580795288086,0
0.6042446136474610,0.3962848663330078,0
0.6041273117065430,0.3962848663330078,0
0.6047922134399414,0.3965051651000976,0
0.6048603057861328,0.3965051651000976,0
0.6046262741088867,0.3967134475708008,0
0.6049386978149414,0.3967134475708008,0
0.6048002243041992,0.3966018676757813,0
0.6050050735473632,0.3966018676757813,0
0.6050823211669921,0.3975711822509765,0
0.6050863265991211,0.3975711822509765,0
0.6049186706542968,0.3971946716308594,0
0.6049524307250976,0.3971946716308594,0
0.6056774139404296,0.3973829269409180,0
0.6056591033935547,0.3973829269409180,0
0.6054891586303711,0.3975929260253906,0
0.6057518005371093,0.3975929260253906,0
0.6056407928466797,0.3975294113159180,0
0.6059286117553710,0.3975294113159180,0
0.6059160232543945,0.3984432220458984,0
0.6058628082275390,0.3984432220458984,0
0.6057437896728516,0.3980506896972656,0
0.6057043075561523,0.3980506896972656,0
0.6064149856567382,0.3982034683227539,0
0.6064046859741211,0.3982034683227539,0
0.6062215805053711,0.3984512329101562,0
0.6065156936645507,0.3984512329101562,0
0.6063434600830078,0.3982772827148438,0
0.6065774917602539,0.3982772827148438,0
0.6065734863281250,0.3991945266723633,0
0.6065151214599609,0.3991945266723633,0
0.6063097000122070,0.3987699508666992,0
0.6062501907348633,0.3987699508666992,0
0.6069231033325195,0.3988952636718750,0
0.6070003509521484,0.3988952636718750,0
0.6067703247070312,0.3990938186645508,0
0.6069705963134765,0.3990938186645508,0
0.6068944931030273,0.3988855361938476,0
0.6071393966674804,0.3988855361938476,0
0.6070449829101562,0.3997209548950195,0
0.6069562911987304,0.3997209548950195,0
0.6067937850952149,0.3992374420166016,0
0.6067434310913086,0.3992374420166016,0
0.6075124740600586,0.3993570327758789,0
0.6074083328247070,0.3993570327758789,0
0.6071474075317382,0.3994960784912109,0
0.6074186325073242,0.3994960784912109,0
0.6072086334228516,0.3992849349975586,0
0.6074563980102539,0.3992849349975586,0
0.6074083328247070,0.4001266479492188,0
0.6072835922241211,0.4001266479492188,0
0.6070987701416015,0.3996053695678711,0
0.6070650100708007,0.3996053695678711,0
0.6078008651733399,0.3997175216674805,0
0.6076887130737304,0.3997175216674805,0
0.6075376510620117,0.3998537063598633,0
0.6077184677124023,0.3998537063598633,0
0.6075817108154297,0.3997661590576172,0
0.6079828262329101,0.3997661590576172,0
0.6078941345214843,0.4005197525024414,0
0.6077905654907226,0.4005197525024414,0
0.6075496673583984,0.4000768661499023,0
0.6075353622436523,0.4000768661499023,0
0.6082637786865234,0.4001546859741211,0
0.6082008361816406,0.4001546859741211,0
0.6079942703247070,0.4002342224121094,0
0.6081665039062499,0.4002342224121094,0
0.6079032897949218,0.3999532699584961,0
0.6080400466918945,0.3999532699584961,0
0.6077831268310546,0.4003263473510742,0
0.6073350906372070,0.4003263473510742,0
0.6068052291870117,0.3992448806762695,0
0.6063217163085938,0.3992448806762695,0
0.6066352844238281,0.3983911514282226,0
0.6060379028320312,0.3983911514282226,0
0.6052700042724609,0.3973772048950195,0
0.6048099517822265,0.3973772048950195,0
0.6040431976318359,0.3957921981811524,0
0.6034801483154296,0.3957921981811524,0
0.6025171279907227,0.3947479248046875,0
0.6014064788818360,0.3947479248046875,0
0.5993350982666016,0.3923492431640625,0
0.5997327804565430,0.3913656234741211,0
0.5991840362548828,0.3913656234741211,0
0.5984390258789062,0.3905685424804687,0
0.5972551345825196,0.3893045425415039,0
0.5969055175781249,0.3893045425415039,0
0.5976202011108398,0.3890750885009766,0
0.5974485397338867,0.3890750885009766,0
0.5973089218139648,0.3892971038818359,0
0.5976974487304687,0.3892971038818359,0
0.5977329254150391,0.3895448684692382,0
0.5982753753662109,0.3895448684692382,0
0.5985271453857421,0.3907493591308593,0
0.5987216949462890,0.3907493591308593,0
0.5988395690917968,0.3908866882324218,0
0.5990827560424804,0.3908866882324218,0
0.6001218795776367,0.3915309906005859,0
0.6002866744995117,0.3915309906005859,0
0.6002763748168946,0.3920740127563476,0
0.6006677627563476,0.3920740127563476,0
0.6006523132324219,0.3923721313476562,0
0.6011655807495117,0.3923721313476562,0
0.6013086318969726,0.3933866500854492,0
0.6012971878051757,0.3933866500854492,0
0.6012193679809570,0.3932991027832031,0
0.6013006210327149,0.3932991027832031,0
0.6022533416748047,0.3936401367187500,0
0.6022642135620117,0.3936401367187500,0
0.6021394729614258,0.3939823150634765,0
0.6024587631225585,0.3939823150634765,0
0.6024782180786132,0.3941957473754883,0
0.6028787612915039,0.3941957473754883,0
0.6029846191406250,0.3951427459716797,0
0.6031282424926757,0.3951427459716797,0
0.6029245376586914,0.3951513290405274,0
0.6033622741699218,0.3951513290405274,0
0.6040105819702148,0.3955129623413086,0
0.6038429260253906,0.3961212158203125,0
0.6037256240844726,0.3958826065063477,0
0.6047115325927734,0.3960840225219727,0
0.6047115325927734,0.3962310791015625,0
0.6047235488891601,0.3964851379394531,0
0.6042537689208984,0.3964965820312500,0
0.6050926208496094,0.3965858459472656,0
0.6047201156616211,0.3971220016479492,0
0.6044025421142578,0.3965784072875976,0
0.6043424606323242,0.3967088699340820,0
0.6049770355224610,0.3966974258422851,0
0.6048116683959961,0.3970367431640625,0
0.6043636322021484,0.3966012954711914,0
0.6045633316040039,0.3966917037963867,0
0.6048231124877930,0.3965578079223633,0
0.6044918060302734,0.3965114593505859,0
0.6041421890258789,0.3964708328247070,0
0.6049243927001953,0.3964702606201172,0
0.6046331405639648,0.3964702606201172,0
0.6043018341064453,0.3964256286621093,0
0.6042222976684570,0.3965703964233399,0
0.6049810409545898,0.3966768264770508,0
0.6048419952392577,0.3971586227416992,0
0.6045061111450195,0.3968713760375976,0
0.6048294067382812,0.3971128463745117,0
0.6051269531250000,0.3975603103637695,0
0.6050857543945313,0.3975214004516601,0
0.6048677444458007,0.3973217010498047,0
0.6052774429321289,0.3973056793212891,0
0.6055503845214844,0.3980112075805664,0
0.6055337905883789,0.3976638793945312,0
0.6056344985961913,0.3980226516723633,0
0.6059961318969727,0.3977531433105468,0
0.6059635162353515,0.3983877182006836,0
0.6059635162353515,0.3980798721313477,0
0.6060241699218750,0.3981966018676757,0
0.6066844940185546,0.3982154846191406,0
0.6063468933105468,0.3985519409179688,0
0.6060235977172851,0.3985519409179688,0
0.6067972183227539,0.3985662460327148,0
0.6067411422729492,0.3991333007812500,0
0.6066656112670898,0.3989130020141601,0
0.6067497253417968,0.3989370346069336,0
0.6073024749755859,0.3989370346069336,0
0.6069282531738281,0.3994995117187500,0
0.6069282531738281,0.3992294311523437,0
0.6069808959960937,0.3992174148559570,0
0.6072750091552734,0.3998142242431640,0
0.6071599960327149,0.3997306823730469,0
0.6068458557128906,0.3995647430419922,0
0.6072326660156250,0.3994731903076172,0
0.6074666976928711,0.3999996185302734,0
0.6074747085571289,0.3999996185302734,0
0.6070255279541016,0.3997707366943359,0
0.6074243545532226,0.3996511459350586,0
0.6076160430908203,0.4001403808593750,0
0.6075696945190430,0.4001403808593750,0
0.6071290969848633,0.3999126434326172,0
0.6075284957885742,0.3998691558837891,0
0.6077705383300781,0.4003778457641601,0
0.6076646804809570,0.4003778457641601,0
0.6073310852050781,0.4000917434692383,0
0.6076749801635742,0.4000207901000977,0
0.6079307556152344,0.4004934310913086,0
0.6078992843627929,0.4004934310913086,0
0.6079891204833984,0.4003835678100586,0
0.6079891204833984,0.4002840042114258,0
0.6082122802734374,0.4007984161376953,0
0.6081579208374023,0.4005031585693359,0
0.6082082748413086,0.4006748199462891,0
0.6085029602050781,0.4004865646362304,0
0.6080303192138672,0.4006736755371094,0
0.6080514907836914,0.4003635406494140,0
0.6076240539550781,0.3998886108398437,0
0.6079788208007812,0.3998886108398437,0
0.6067428588867188,0.3995641708374023,0
0.6067428588867188,0.3988414764404297,0
0.6056533813476562,0.3976879119873047,0
0.6055532455444336,0.3969537734985352,0
0.6036203384399413,0.3955129623413086,0
0.6028844833374023,0.3955896377563476,0
0.6018259048461914,0.3936464309692383,0
0.6014064788818360,0.3925992965698242,0
0.5991886138916015,0.3909439086914062,0
0.5986106872558593,0.3910137176513672,0
0.5977380752563476,0.3897285461425781,0
0.5979789733886719,0.3893760681152343,0
0.5970703125000000,0.3890247344970703,0
0.5966817855834960,0.3893308639526367,0
0.5976099014282227,0.3891780853271484,0
0.5977935791015625,0.3898927688598633,0
0.5978210449218749,0.3899007797241211,0
0.5984790802001952,0.3905055999755859,0
0.5993911743164062,0.3905055999755859,0
0.5995605468749999,0.3914920806884766,0
0.5995605468749999,0.3914817810058593,0
0.6002151489257812,0.3920248031616211,0
0.6009973526000977,0.3922725677490234,0
0.6009590148925781,0.3927869796752930,0
0.6012731552124023,0.3928190231323242,0
0.6018499374389649,0.3931446075439453,0
0.6020856857299804,0.3933740615844726,0
0.6018424987792969,0.3937122344970703,0
0.6021177291870117,0.3937122344970703,0
0.6027151107788086,0.3940326690673828,0
0.6028896331787109,0.3942026138305664,0
0.6026721954345703,0.3945716857910156,0
0.6024650573730469,0.3947427749633789,0
0.6038017272949219,0.3950763702392578,0
0.6038017272949219,0.3952074050903320,0
0.6035825729370117,0.3956245422363281,0
0.6034555435180664,0.3957332611083984,0
0.6046846389770507,0.3959907531738281,0
0.6044672012329101,0.3960834503173828,0
0.6045398712158203,0.3964073181152344,0
0.6040529251098633,0.3965641021728515,0
0.6052350997924805,0.3966796875000000,0
0.6050136566162109,0.3966796875000000,0
0.6049444198608398,0.3967735290527344,0
0.6044420242309571,0.3969045639038086,0
0.6054393768310546,0.3968776702880859,0
0.6049827575683594,0.3971923828125000,0
0.6044683456420898,0.3968198776245117,0
0.6044683456420898,0.3969354629516602,0
0.6053586959838867,0.3968290328979492,0
0.6048826217651367,0.3970882415771484,0
0.6043441772460937,0.3966768264770508,0
0.6042675018310547,0.3968055725097656,0
0.6049575805664062,0.3967082977294922,0
0.6047779083251953,0.3969205856323242,0
0.6043058395385742,0.3967054367065430,0
0.6042806625366210,0.3968233108520507,0
0.6050680160522460,0.3968072891235351,0
0.6048946380615234,0.3969554901123047,0
0.6043733596801758,0.3970590591430664,0
0.6048843383789062,0.3970590591430664,0
0.6052906036376953,0.3970476150512695,0
0.6051635742187500,0.3973628997802734,0
0.6048070907592773,0.3974040985107422,0
0.6052024841308593,0.3975746154785156,0
0.6055463790893555,0.3975002288818359,0
0.6055463790893555,0.3976913452148437,0
0.6052167892456054,0.3978670120239258,0
0.6056699752807617,0.3980392456054687,0
0.6059984207153321,0.3984352111816406,0
0.6060819625854492,0.3982864379882812,0
0.6063262939453125,0.3986211776733398,0
0.6062833786010742,0.3985090255737305,0
0.6063766479492188,0.3989667892456055,0
0.6068830490112305,0.3987464904785156,0
0.6065694808959960,0.3990955352783203,0
0.6066095352172851,0.3989833831787109,0
0.6067222595214844,0.3991081237792969,0
0.6074060440063477,0.3993513107299805,0
0.6069208145141601,0.3993415832519531,0
0.6069997787475586,0.3994823455810547,0
0.6076772689819335,0.3994823455810547,0
0.6071725845336914,0.3995223999023437,0
0.6071725845336914,0.3995887756347656,0
0.6072589874267578,0.3996797561645508,0
0.6077241897583008,0.3996797561645508,0
0.6074237823486328,0.3998628616333008,0
0.6073305130004882,0.3998628616333008,0
0.6070478439331054,0.3999635696411133,0
0.6069900512695312,0.3999635696411133,0
0.6080303192138672,0.3999406814575195,0
0.6077259063720702,0.3999406814575195,0
0.6074781417846680,0.3999727249145508,0
0.6076961517333984,0.3999727249145508,0
0.6075679779052734,0.4000860214233398,0
0.6080205917358398,0.4000860214233398,0
0.6077756881713867,0.4002285003662109,0
0.6075674057006836,0.4002285003662109,0
0.6073379516601562,0.4003160476684570,0
0.6073322296142578,0.4003160476684570,0
0.6084268569946288,0.4002513885498047,0
0.6081150054931640,0.4002513885498047,0
0.6078695297241211,0.4003767013549804,0
0.6080308914184570,0.4003767013549804,0
0.6079605102539062,0.4005289077758789,0
0.6084262847900390,0.4005289077758789,0
0.6081533432006836,0.4006261825561523,0
0.6079719543457031,0.4006261825561523,0
0.6076864242553711,0.4007909774780273,0
0.6076841354370117,0.4007909774780273,0
0.6087495803833007,0.4006753921508789,0
0.6084159851074219,0.4006753921508789,0
0.6080898284912110,0.4005661010742188,0
0.6080915451049804,0.4005661010742188,0
0.6078157424926758,0.4003360748291016,0
0.6080068588256836,0.4003360748291016,0
0.6074380874633789,0.3998468399047851,0
0.6068693161010742,0.3998468399047851,0
0.6061958312988281,0.3990411758422852,0
0.6055395126342773,0.3990411758422852,0
0.6061208724975585,0.3978715896606445,0
0.6050685882568360,0.3978715896606445,0
0.6041719436645507,0.3964748382568359,0
0.6035007476806641,0.3964748382568359,0
0.6024473190307617,0.3946987152099609,0
0.6019186019897461,0.3946987152099609,0
0.6007186889648437,0.3927309036254883,0
0.5995754241943360,0.3927309036254883,0
0.5985855102539063,0.3911218643188477,0
0.5978004455566406,0.3911218643188477,0
0.5982055664062500,0.3898252487182617,0
0.5974834442138671,0.3898252487182617,0
0.5969490051269531,0.3891883850097656,0
0.5969661712646485,0.3891883850097656,0
0.5969152450561523,0.3892450332641602,0
0.5973409652709961,0.3897027969360352,0
0.5974027633666992,0.3901828765869140,0
0.5980974197387695,0.3901828765869140,0
0.5990507125854492,0.3906949996948242,0
0.5990839004516602,0.3906949996948242,0
0.5990816116333008,0.3913496017456055,0
0.5995691299438476,0.3913496017456055,0
0.5997642517089844,0.3920682907104492,0
0.6005315780639648,0.3920682907104492,0
0.6004932403564452,0.3925397872924805,0
0.6005058288574219,0.3925397872924805,0
0.6005132675170898,0.3931056976318359,0
0.6006809234619140,0.3931056976318359,0
0.6018241882324219,0.3932968139648437,0
0.6016445159912109,0.3932968139648437,0
0.6016038894653321,0.3937294006347656,0
0.6018939971923828,0.3937294006347656,0
0.6019145965576171,0.3941156387329102,0
0.6024690628051758,0.3941156387329102,0
0.6023025512695312,0.3943742752075195,0
0.6022693634033203,0.3943742752075195,0
0.6022281646728516,0.3949224472045899,0
0.6024124145507812,0.3949224472045899,0
0.6035408020019531,0.3951782226562500,0
0.6034132003784179,0.3951782226562500,0
0.6032707214355468,0.3955862045288086,0
0.6036300659179688,0.3955862045288086,0
0.6036014556884766,0.3959604263305664,0
0.6042434692382812,0.3959604263305664,0
0.6040895462036132,0.3962156295776367,0
0.6040088653564453,0.3962156295776367,0
0.6038543701171875,0.3966579437255859,0
0.6039550781249999,0.3966579437255859,0
0.6049598693847656,0.3967466354370117,0
0.6047012329101562,0.3967466354370117,0
0.6045375823974609,0.3968605041503906,0
0.6047441482543945,0.3968605041503906,0
0.6046834945678711,0.3970567703247070,0
0.6051521301269531,0.3970567703247070,0
0.6048614501953125,0.3969778060913086,0
0.6046440124511718,0.3969778060913086,0
0.6043544769287109,0.3971895217895507,0
0.6043184280395507,0.3971895217895507,0
0.6052642822265625,0.3969686508178711,0
0.6048522949218750,0.3969686508178711,0
0.6045484542846680,0.3968730926513672,0
0.6046302795410156,0.3968730926513672,0
0.6044488906860351,0.3968799591064453,0
0.6048934936523437,0.3968799591064453,0
0.6044597625732422,0.3967088699340820,0
0.6042772293090820,0.3967088699340820,0
0.6040134429931641,0.3969457626342773,0
0.6040283203125000,0.3969457626342773,0
0.6050010681152344,0.3968416213989258,0
0.6046371459960938,0.3968416213989258,0
0.6044059753417969,0.3968862533569336,0
0.6046028137207031,0.3968862533569336,0
0.6047418594360351,0.3972352981567382,0
0.6052762985229492,0.3972352981567382,0
0.6049798965454102,0.3971820831298828,0
0.6048780441284179,0.3971820831298828,0
0.6047063827514648,0.3976278305053711,0
0.6047939300537110,0.3976278305053711,0
0.6058067321777344,0.3976604461669922,0
0.6054908752441406,0.3976604461669922,0
0.6053764343261718,0.3977657318115234,0
0.6056104660034179,0.3977657318115234,0
0.6056270599365234,0.3980506896972656,0
0.6061643600463867,0.3980506896972656,0
0.6059474945068359,0.3981147766113281,0
0.6057992935180664,0.3981147766113281,0
0.6056694030761719,0.3986400604248047,0
0.6056808471679688,0.3986400604248047,0
0.6067863464355469,0.3985759735107422,0
0.6064590454101563,0.3985759735107422,0
0.6063137054443359,0.3987230300903320,0
0.6065317153930664,0.3987230300903320,0
0.6064567565917969,0.3990142822265625,0
0.6070867538452148,0.3990142822265625,0
0.6067199707031250,0.3989656448364258,0
0.6065711975097656,0.3989656448364258,0
0.6064384460449218,0.3994308471679687,0
0.6064464569091796,0.3994308471679687,0
0.6074718475341797,0.3993581771850586,0
0.6071136474609374,0.3993581771850586,0
0.6068927764892578,0.3994903564453125,0
0.6070741653442383,0.3994903564453125,0
0.6070821762084960,0.3997043609619140,0
0.6076028823852538,0.3997043609619140,0
0.6072772979736328,0.3995515823364258,0
0.6070884704589844,0.3995515823364258,0
0.6069437026977539,0.4000293731689453,0
0.6069465637207031,0.4000293731689453,0
0.6078672409057617,0.3999904632568359,0
0.6076778411865235,0.3999904632568359,0
0.6074346542358399,0.4000597000122070,0
0.6076749801635742,0.4000597000122070,0
0.6075325012207031,0.4001358032226562,0
0.6080669403076172,0.4001358032226562,0
0.6076755523681641,0.4000780105590820,0
0.6075319290161133,0.4000780105590820,0
0.6073179244995117,0.4005020141601562,0
0.6073734283447265,0.4005020141601562,0
0.6083650588989258,0.4002994537353515,0
0.6080108642578125,0.4002994537353515,0
0.6077539443969726,0.4003818511962891,0
0.6079776763916015,0.4003818511962891,0
0.6078861236572265,0.4005231857299805,0
0.6084388732910156,0.4005231857299805,0
0.6079931259155273,0.4003973007202148,0
0.6077957153320312,0.4003973007202148,0
0.6076566696166992,0.4007886886596679,0
0.6076543807983398,0.4007886886596679,0
0.6086151123046875,0.4006885528564453,0
0.6082963943481445,0.4006885528564453,0
0.6080904006958008,0.4007486343383789,0
0.6082729339599610,0.4007486343383789,0
0.6081733703613281,0.4008665084838867,0
0.6087541580200195,0.4008665084838867,0
0.6083702087402344,0.4007308959960937,0
0.6081533432006836,0.4007308959960937,0
0.6079759597778320,0.4011096954345703,0
0.6079038619995117,0.4011096954345703,0
0.6087947845458984,0.4007755279541015,0
0.6082271575927735,0.4007755279541015,0
0.6078746795654296,0.4004127502441406,0
0.6076898574829102,0.4004127502441406,0
0.6071914672851563,0.3998611450195312,0
0.6072349548339844,0.3998611450195312,0
0.6064367294311523,0.3986097335815429,0
0.6056276321411133,0.3986097335815429,0
0.6049123764038086,0.3978206634521484,0
0.6040626525878906,0.3978206634521484,0
0.6042091369628906,0.3959575653076172,0
0.6028215408325195,0.3959575653076172,0
0.6016759872436523,0.3938941955566406,0
0.6006946563720703,0.3938941955566406,0
0.5997648239135742,0.3920763015747070,0
0.5992830276489257,0.3920763015747070,0
0.5981649398803711,0.3902160644531250,0
0.5974113464355468,0.3902160644531250,0
0.5968643188476562,0.3895803451538086,0
0.5967733383178710,0.3895803451538086,0
0.5971235275268555,0.3888977050781250,0
0.5966886520385742,0.3888977050781250,0
0.5965387344360351,0.3889738082885742,0
0.5968368530273437,0.3889738082885742,0
0.5969644546508789,0.3894699096679687,0
0.5977809906005859,0.3894699096679687,0
0.5977403640747070,0.3898590087890625,0
0.5979915618896484,0.3898590087890625,0
0.5980825424194336,0.3910091400146484,0
0.5984647750854492,0.3910091400146484,0
0.5996858596801757,0.3914697647094726,0
0.5996315002441406,0.3914697647094726,0
0.5998043060302735,0.3924905776977539,0
0.5998043060302735,0.3926279067993164,0
0.6011993408203125,0.3928098678588867,0
0.6010757446289062,0.3928098678588867,0
0.6009675979614257,0.3932636260986328,0
0.6013504028320312,0.3932636260986328,0
0.6013658523559570,0.3937070846557617,0
0.6020868301391601,0.3937070846557617,0
0.6017578124999999,0.3937665939331055,0
0.6017189025878906,0.3937665939331055,0
0.6016805648803710,0.3945167541503906,0
0.6018516540527343,0.3945167541503906,0
0.6028781890869140,0.3946729660034179,0
0.6026538848876953,0.3946729660034179,0
0.6026264190673828,0.3951107025146484,0
0.6030166625976562,0.3951107025146484,0
0.6030950546264648,0.3956251144409180,0
0.6037765502929687,0.3956251144409180,0
0.6035110473632812,0.3957498550415039,0
0.6034996032714843,0.3957498550415039,0
0.6035322189331055,0.3964668273925781,0
0.6036930084228516,0.3964668273925781,0
0.6046165466308594,0.3964874267578125,0
0.6043447494506836,0.3964874267578125,0
0.6042566299438477,0.3966539382934570,0
0.6044763565063477,0.3966539382934570,0
0.6044294357299804,0.3969320297241211,0
0.6049598693847656,0.3969320297241211,0
0.6045473098754882,0.3967466354370117,0
0.6043355941772460,0.3967466354370117,0
0.6042566299438477,0.3972822189331054,0
0.6042160034179688,0.3972822189331054,0
0.6051229476928711,0.3969217300415039,0
0.6046594619750977,0.3969217300415039,0
0.6044237136840820,0.3968816757202148,0
0.6045204162597656,0.3968816757202148,0
0.6044288635253906,0.3969234466552734,0
0.6049352645874023,0.3969234466552734,0
0.6044815063476562,0.3966939926147461,0
0.6042726516723632,0.3966939926147461,0
0.6042320251464843,0.3970590591430664,0
0.6041553497314452,0.3970590591430664,0
0.6049558639526367,0.3968141555786133,0
0.6045513153076172,0.3968141555786133,0
0.6044191360473633,0.3968730926513672,0
0.6045839309692382,0.3968730926513672,0
0.6045484542846680,0.3970373153686523,0
0.6050926208496094,0.3970373153686523,0
0.6047103881835937,0.3968542098999023,0
0.6045175552368164,0.3968542098999023,0
0.6045513153076172,0.3975111007690429,0
0.6045747756958008,0.3975111007690429,0
0.6054508209228515,0.3973749160766601,0
0.6051967620849609,0.3973749160766601,0
0.6049798965454102,0.3975259780883789,0
0.6052597045898437,0.3975259780883789,0
0.6052276611328125,0.3978773117065429,0
0.6058404922485351,0.3978773117065429,0
0.6055303573608398,0.3977525711059570,0
0.6054777145385742,0.3977525711059570,0
0.6054302215576172,0.3985170364379882,0
0.6055664062500000,0.3985170364379882,0
0.6064762115478516,0.3983551025390625,0
0.6061328887939453,0.3983551025390625,0
0.6060647964477539,0.3985210418701172,0
0.6063154220581054,0.3985210418701172,0
0.6062587738037110,0.3988918304443359,0
0.6068332672119140,0.3988918304443359,0
0.6064950942993164,0.3987550735473633,0
0.6064069747924804,0.3987550735473633,0
0.6064378738403320,0.3994571685791016,0
0.6064990997314453,0.3994571685791016,0
0.6073167800903320,0.3992820739746094,0
0.6069889068603516,0.3992820739746094,0
0.6068773269653320,0.3993833541870117,0
0.6070581436157226,0.3993833541870117,0
0.6070432662963867,0.3996408462524414,0
0.6076726913452148,0.3996408462524414,0
0.6071760177612304,0.3994731903076172,0
0.6070861816406250,0.3994731903076172,0
0.6071319580078125,0.4001609802246094,0
0.6071634292602539,0.4001609802246094,0
0.6079364776611328,0.3999555587768555,0
0.6075634002685547,0.3999555587768555,0
0.6075084686279296,0.4000665664672852,0
0.6076915740966796,0.4000665664672852,0
0.6075948715209961,0.4002914428710938,0
0.6081567764282226,0.4002914428710938,0
0.6078100204467773,0.4000654220581055,0
0.6076784133911133,0.4000654220581055,0
0.6076395034790039,0.4006879806518555,0
0.6075988769531250,0.4006879806518555,0
0.6083999633789062,0.4004007339477539,0
0.6080680847167969,0.4004007339477539,0
0.6078603744506835,0.4004064559936523,0
0.6080526351928711,0.4004064559936523,0
0.6079582214355469,0.4006702423095703,0
0.6084938049316406,0.4006702423095703,0
0.6080766677856445,0.4004041671752930,0
0.6079330444335938,0.4004041671752930,0
0.6079416275024414,0.4010358810424804,0
0.6079170227050781,0.4010358810424804,0
0.6087610244750976,0.4008247375488281,0
0.6084096908569335,0.4008247375488281,0
0.6083290100097656,0.4008264541625977,0
0.6084754943847656,0.4008264541625977,0
0.6083553314208984,0.4010931015014648,0
0.6089246749877929,0.4010931015014648,0
0.6085441589355468,0.4007966995239258,0
0.6084074020385742,0.4007966995239258,0
0.6083633422851562,0.4014398574829102,0
0.6083118438720703,0.4014398574829102,0
0.6090425491333008,0.4011108398437500,0
0.6086380004882812,0.4011108398437500,0
0.6084400177001953,0.4009357452392578,0
0.6084566116333008,0.4009357452392578,0
0.6082225799560547,0.4007766723632812,0
0.6083885192871094,0.4007766723632812,0
0.6076023101806640,0.3998805999755859,0
0.6070392608642577,0.3998805999755859,0
0.6065746307373047,0.3995761871337891,0
0.6060247421264648,0.3995761871337891,0
0.6061214447021485,0.3979883193969727,0
0.6050182342529297,0.3979883193969727,0
0.6041868209838867,0.3963243484497070,0
0.6032506942749023,0.3963243484497070,0
0.6023237228393554,0.3945007324218750,0
0.6016445159912109,0.3945007324218750,0
0.6002363204956055,0.3920717239379883,0
0.5990598678588867,0.3920717239379883,0
0.5982421875000000,0.3909439086914062,0
0.5974931716918945,0.3909439086914062,0
0.5977214813232422,0.3893943786621094,0
0.5969181060791016,0.3893943786621094,0
0.5965187072753906,0.3887723922729492,0
0.5965976715087891,0.3887723922729492,0
0.5965187072753906,0.3888410568237304,0
0.5971452713012695,0.3888410568237304,0
0.5968797683715820,0.3888793945312500,0
0.5969221115112304,0.3888793945312500,0
0.5977787017822266,0.3903877258300781,0
0.5986444473266601,0.3902320861816406,0
0.5985637664794922,0.3905508041381836,0
0.5988349914550781,0.3905508041381836,0
0.5990701675415039,0.3919418334960937,0
0.5994409561157227,0.3919418334960937,0
0.6003810882568359,0.3921215057373047,0
0.6003524780273437,0.3921215057373047,0
0.6004789352416992,0.3926593780517578,0
0.6008354187011719,0.3926593780517578,0
0.6009807586669922,0.3931720733642578,0
0.6016222000122070,0.3931720733642578,0
0.6013309478759765,0.3931348800659180,0
0.6013881683349609,0.3931348800659180,0
0.6014488220214843,0.3941293716430664,0
0.6016307830810547,0.3941293716430664,0
0.6024015426635742,0.3941453933715820,0
0.6022401809692383,0.3941453933715820,0
0.6023511886596680,0.3945201873779297,0
0.6026447296142577,0.3945201873779297,0
0.6027362823486327,0.3950185775756836,0
0.6034011840820312,0.3950185775756836,0
0.6031230926513672,0.3950311660766602,0
0.6031476974487304,0.3950311660766602,0
0.6032981872558594,0.3960954666137695,0
0.6034503936767578,0.3960954666137695,0
0.6042125701904296,0.3960685729980469,0
0.6040174484252929,0.3960685729980469,0
0.6040809631347656,0.3963003158569336,0
0.6043395996093750,0.3963003158569336,0
0.6042503356933594,0.3967191696166992,0
0.6048414230346679,0.3967191696166992,0
0.6044775009155273,0.3964822769165039,0
0.6044271469116210,0.3964822769165039,0
0.6044649124145508,0.3972753524780273,0
0.6044162750244141,0.3972753524780273,0
0.6050846099853515,0.3969749450683593,0
0.6047109603881836,0.3969749450683593,0
0.6046560287475585,0.3969285964965820,0
0.6047716140747070,0.3969285964965820,0
0.6045953750610351,0.3970567703247070,0
0.6051366806030273,0.3970567703247070,0
0.6046588897705077,0.3965543746948242,0
0.6045124053955078,0.3965543746948242,0
0.6044528961181640,0.3972398757934570,0
0.6043567657470703,0.3972398757934570,0
0.6049547195434570,0.3967821121215820,0
0.6045770645141602,0.3967821121215820,0
0.6045438766479492,0.3968187332153320,0
0.6046382904052734,0.3968187332153320,0
0.6045072555541992,0.3969617843627929,0
0.6050233840942383,0.3969617843627929,0
0.6046520233154297,0.3966196060180664,0
0.6045650482177735,0.3966196060180664,0
0.6045009613037109,0.3974063873291016,0
0.6045988082885742,0.3974063873291016,0
0.6052551269531250,0.3971872329711914,0
0.6049484252929688,0.3971872329711914,0
0.6049100875854492,0.3973016738891602,0
0.6051841735839844,0.3973016738891602,0
0.6051143646240235,0.3976249694824219,0
0.6057432174682617,0.3976249694824219,0
0.6053752899169922,0.3973932266235352,0
0.6053140640258788,0.3973932266235352,0
0.6054119110107422,0.3984151840209961,0
0.6054771423339843,0.3984151840209961,0
0.6060745239257812,0.3981639862060547,0
0.6058822631835937,0.3981639862060547,0
0.6058444976806641,0.3983367919921875,0
0.6061346054077148,0.3983367919921875,0
0.6060991287231445,0.3987298965454101,0
0.6066381454467773,0.3987298965454101,0
0.6062833786010742,0.3983922958374023,0
0.6062438964843749,0.3983922958374023,0
0.6062656402587890,0.3993679046630859,0
0.6063257217407226,0.3993679046630859,0
0.6069900512695312,0.3991115570068359,0
0.6066776275634765,0.3989015579223633,0
0.6067760467529296,0.3996894836425781,0
0.6074661254882813,0.3995309829711914,0
0.6073848724365234,0.3995521545410156,0
0.6072092056274414,0.3996471405029297,0
0.6070684432983399,0.4000419616699218,0
0.6077659606933593,0.3998731613159179,0
0.6074192047119140,0.3998977661132813,0
0.6076051712036132,0.4000076293945312,0
0.6073923110961914,0.4005340576171875,0
0.6080154418945313,0.4001604080200195,0
0.6076686859130859,0.4003520965576172,0
0.6076251983642578,0.4005048751831055,0
0.6075994491577148,0.4007377624511719,0
0.6078495025634766,0.4003709793090820,0
0.6078495025634766,0.4001707077026367,0
0.6077768325805664,0.4010169982910156,0
0.6079748153686523,0.4008167266845703,0
0.6080051422119140,0.4007022857666016,0
0.6079553604125977,0.4002702713012695,0
0.6081270217895508,0.4011686325073242,0
0.6081270217895508,0.4008384704589844,0
0.6081235885620117,0.4005392074584961,0
0.6082780838012695,0.4008361816406250,0
0.6083038330078124,0.4010135650634766,0
0.6087787628173827,0.4009220123291016,0
0.6084743499755859,0.4006776809692383,0
0.6086763381958008,0.4010599136352539,0
0.6089950561523437,0.4012538909912109,0
0.6089097976684570,0.4012144088745117,0
0.6085950851440429,0.4011886596679687,0
0.6085653305053711,0.4015354156494140,0
0.6090110778808594,0.4011943817138672,0
0.6086111068725586,0.4012372970581055,0
0.6083621978759766,0.4009969711303711,0
0.6081544876098632,0.4013219833374023,0
0.6080057144165039,0.4001552581787109,0
0.6073385238647461,0.3998605728149414,0
0.6062278747558594,0.3989233016967773,0
0.6052499771118164,0.3981319427490234,0
0.6052442550659179,0.3972473144531250,0
0.6031602859497071,0.3952171325683594,0
0.6019929885864258,0.3943954467773437,0
0.6003353118896484,0.3920253753662109,0
0.5990278244018554,0.3921369552612304,0
0.5975069046020508,0.3899379730224609,0
0.5968963623046875,0.3902252197265625,0
0.5964202880859375,0.3888971328735352,0
0.5964460372924805,0.3883369445800781,0
0.5964082717895508,0.3892679214477539,0
0.5965925216674804,0.3892679214477539,0
0.5971006393432617,0.3891849517822266,0
0.5971006393432617,0.3891443252563476,0
0.5978067398071288,0.3906726837158203,0
0.5982404708862304,0.3908226013183594,0
0.5990690231323242,0.3914234161376953,0
0.5993688583374023,0.3909313201904297,0
0.5999130249023438,0.3924625396728516,0
0.6000743865966797,0.3923549652099609,0
0.6006036758422851,0.3924024581909180,0
0.6008388519287109,0.3924024581909180,0
0.6011312484741210,0.3937002182006836,0
0.6012153625488281,0.3933637619018555,0
0.6016284942626953,0.3933202743530274,0
0.6018665313720702,0.3933202743530274,0
0.6020370483398437,0.3945327758789062,0
0.6020370483398437,0.3943210601806640,0
0.6023769378662109,0.3942100524902344,0
0.6025875091552734,0.3943473815917969,0
0.6029411315917969,0.3953773498535156,0
0.6035659790039062,0.3951925277709961,0
0.6033794403076171,0.3951398849487305,0
0.6035310745239257,0.3956989288330078,0
0.6038578033447265,0.3962608337402344,0
0.6042612075805663,0.3962608337402344,0
0.6043258666992187,0.3960851669311523,0
0.6043258666992187,0.3965183258056640,0
0.6044631958007812,0.3968353271484375,0
0.6049015045166015,0.3967838287353516,0
0.6047269821166992,0.3964410781860351,0
0.6048242568969726,0.3969051361083984,0
0.6047538757324219,0.3970973968505859,0
0.6050354003906250,0.3969640731811523,0
0.6047910690307617,0.3965612411499023,0
0.6048528671264648,0.3969514846801758,0
0.6050760269165039,0.3971443176269531,0
0.6049821853637695,0.3969297409057617,0
0.6046943664550781,0.3969011306762695,0
0.6045713424682617,0.3969011306762695,0
0.6050107955932617,0.3970069885253906,0
0.6048597335815430,0.3968948364257812,0
0.6047149658203125,0.3969263076782226,0
0.6046405792236328,0.3972890853881836,0
0.6050210952758789,0.3969303131103515,0
0.6050210952758789,0.3969875335693359,0
0.6048540115356446,0.3970727920532227,0
0.6048002243041992,0.3974836349487305,0
0.6051475524902343,0.3973274230957031,0
0.6049638748168945,0.3973617553710938,0
0.6054342269897460,0.3975317001342774,0
0.6052476882934570,0.3981834411621094,0
0.6057220458984375,0.3978612899780273,0
0.6055349349975586,0.3978612899780273,0
0.6058879852294922,0.3980546951293945,0
0.6056682586669921,0.3987596511840820,0
0.6061489105224609,0.3983940124511718,0
0.6060522079467773,0.3986234664916992,0
0.6062364578247070,0.3990880966186524,0
0.6062421798706055,0.3992712020874024,0
0.6066736221313477,0.3989278793334961,0
0.6065139770507812,0.3991401672363281,0
0.6066833496093750,0.3995338439941406,0
0.6066215515136718,0.3997587203979492,0
0.6068544387817383,0.3993610382080078,0
0.6069013595581054,0.3990898132324219,0
0.6071205139160156,0.4000076293945312,0
0.6070329666137695,0.4001775741577148,0
0.6073104858398437,0.3997941970825195,0
0.6073064804077148,0.3994926452636718,0
0.6074272155761719,0.4003355026245117,0
0.6073047637939453,0.4005020141601562,0
0.6075004577636719,0.4001197814941406,0
0.6075885772705077,0.3998302459716797,0
0.6077241897583008,0.4008338928222656,0
0.6078100204467773,0.4008338928222656,0
0.6078603744506835,0.4003807067871094,0
0.6079244613647461,0.4000631332397461,0
0.6079324722290039,0.4010925292968750,0
0.6079885482788085,0.4008436203002930,0
0.6081041336059571,0.4008172988891601,0
0.6081075668334961,0.4002754211425781,0
0.6081270217895508,0.4012659072875976,0
0.6082031250000000,0.4009443283081054,0
0.6082866668701171,0.4004419326782226,0
0.6084640502929687,0.4004419326782226,0
0.6082677841186523,0.4014730453491211,0
0.6083787918090821,0.4010931015014648,0
0.6084251403808594,0.4007131576538086,0
0.6085584640502929,0.4007131576538086,0
0.6085607528686523,0.4016887664794922,0
0.6085607528686523,0.4013025283813477,0
0.6086643218994140,0.4008264541625977,0
0.6088113784790039,0.4008642196655273,0
0.6087953567504882,0.4016143798828125,0
0.6087953567504882,0.4015211105346679,0
0.6088439941406250,0.4010953903198242,0
0.6089830398559570,0.4011154174804688,0
0.6089401245117188,0.4017219543457031,0
0.6092863082885742,0.4016115188598633,0
0.6087919235229492,0.4010461807250976,0
0.6089464187622070,0.4012916564941406,0
0.6084892272949218,0.4009912490844726,0
0.6082077026367188,0.4009912490844726,0
0.6073682785034179,0.3992214202880859,0
0.6073682785034179,0.3996631622314453,0
0.6057695388793946,0.3986028671264648,0
0.6044946670532226,0.3965000152587890,0
0.6038171768188476,0.3958940505981445,0
0.6015798568725585,0.3938770294189453,0
0.6006620407104492,0.3925569534301758,0
0.5988338470458984,0.3908609390258789,0
0.5981563568115235,0.3908609390258789,0
0.5974822998046875,0.3897056579589844,0
0.5973455429077148,0.3897056579589844,0
0.5968002319335938,0.3886905670166015,0
0.5966102600097656,0.3886905670166015,0
0.5967041015625000,0.3894922256469727,0
0.5966234207153320,0.3894922256469727,0
0.5971155166625977,0.3893102645874023,0
0.5971984863281250,0.3893102645874023,0
0.5977163314819336,0.3899196624755859,0
0.5981563568115235,0.3899196624755859,0
0.5984247207641601,0.3908277511596679,0
0.5989173889160156,0.3910079956054687,0
0.5996492385864257,0.3914085388183594,0
0.6001167297363281,0.3926799774169922,0
0.6002288818359375,0.3926422119140625,0
0.6005693435668945,0.3926616668701172,0
0.6007627487182617,0.3930101394653320,0
0.6011856079101562,0.3931056976318359,0
0.6012107849121093,0.3931056976318359,0
0.6014253616333007,0.3936498641967773,0
0.6018882751464844,0.3936498641967773,0
0.6017000198364257,0.3934782028198242,0
0.6019163131713867,0.3934782028198242,0
0.6020158767700196,0.3947690963745117,0
0.6020536422729492,0.3947690963745117,0
0.6024198532104492,0.3944772720336914,0
0.6024415969848632,0.3944772720336914,0
0.6027986526489257,0.3948869705200195,0
0.6030727386474609,0.3948869705200195,0
0.6030555725097656,0.3954185485839843,0
0.6035408020019531,0.3954185485839843,0
0.6034864425659180,0.3953744888305664,0
0.6036844253540039,0.3953744888305664,0
0.6038640975952149,0.3966722488403320,0
0.6039104461669922,0.3966722488403320,0
0.6042451858520508,0.3963872909545899,0
0.6041965484619141,0.3963872909545899,0
0.6044837951660156,0.3967128753662109,0
0.6047035217285156,0.3967128753662109,0
0.6046302795410156,0.3970441818237305,0
0.6050359725952148,0.3970441818237305,0
0.6047813415527343,0.3966974258422851,0
0.6047939300537110,0.3966974258422851,0
0.6049175262451172,0.3977296829223633,0
0.6047962188720702,0.3977296829223633,0
0.6050073623657226,0.3971660614013672,0
0.6047653198242188,0.3971660614013672,0
0.6050033569335938,0.3971815109252930,0
0.6050645828247070,0.3971815109252930,0
0.6048683166503906,0.3972793579101562,0
0.6051149368286133,0.3972793579101562,0
0.6047704696655273,0.3967437744140625,0
0.6047716140747070,0.3967437744140625,0
0.6047990798950195,0.3976667404174805,0
0.6046445846557617,0.3976667404174805,0
0.6047132492065429,0.3970481872558594,0
0.6045061111450195,0.3970481872558594,0
0.6048746109008789,0.3970945358276367,0
0.6049604415893555,0.3970945358276367,0
0.6047950744628906,0.3972455978393555,0
0.6051229476928711,0.3972455978393555,0
0.6048242568969726,0.3968673706054687,0
0.6049135208129882,0.3968673706054687,0
0.6049793243408202,0.3979156494140625,0
0.6049295425415039,0.3979156494140625,0
0.6051258087158203,0.3974967956542969,0
0.6050079345703124,0.3974967956542969,0
0.6053804397583008,0.3977399826049804,0
0.6055704116821289,0.3977399826049804,0
0.6054948806762696,0.3980409622192383,0
0.6058387756347656,0.3980409622192383,0
0.6056184768676758,0.3977657318115234,0
0.6057867050170899,0.3977657318115234,0
0.6058616638183594,0.3989347457885742,0
0.6058668136596680,0.3989347457885742,0
0.6060464859008788,0.3985748291015625,0
0.6059389114379883,0.3985748291015625,0
0.6063611984252929,0.3988059997558593,0
0.6063812255859374,0.3988059997558593,0
0.6064126968383788,0.3991201400756836,0
0.6068590164184570,0.3991201400756836,0
0.6065866470336914,0.3988203048706054,0
0.6067171096801758,0.3988203048706054,0
0.6068223953247071,0.3999195098876953,0
0.6067995071411133,0.3999195098876953,0
0.6069128036499023,0.3995561599731445,0
0.6068584442138671,0.3995561599731445,0
0.6072607040405273,0.3997203826904297,0
0.6073928833007812,0.3997203826904297,0
0.6072675704956054,0.3999967575073242,0
0.6076332092285156,0.3999967575073242,0
0.6073991775512695,0.3996683120727539,0
0.6074884414672851,0.3996683120727539,0
0.6075920104980469,0.4007846832275391,0
0.6075422286987304,0.4007846832275391,0
0.6076978683471680,0.4003377914428711,0
0.6075571060180663,0.4003377914428711,0
0.6079061508178710,0.4004425048828125,0
0.6080680847167969,0.4004425048828125,0
0.6079301834106445,0.4006536483764648,0
0.6082775115966796,0.4006536483764648,0
0.6079833984374999,0.4002565383911132,0
0.6080932617187500,0.4002565383911132,0
0.6081584930419922,0.4013311386108399,0
0.6080554962158203,0.4013311386108399,0
0.6082134246826172,0.4007635116577148,0
0.6080211639404297,0.4007635116577148,0
0.6084239959716796,0.4008756637573242,0
0.6085601806640625,0.4008756637573242,0
0.6083061218261718,0.4011034011840820,0
0.6086717605590820,0.4011034011840820,0
0.6084383010864257,0.4007177352905273,0
0.6085733413696289,0.4007177352905273,0
0.6085876464843750,0.4017379760742187,0
0.6084926605224609,0.4017379760742187,0
0.6086002349853515,0.4011182785034180,0
0.6084823608398438,0.4011182785034180,0
0.6088417053222656,0.4012916564941406,0
0.6089309692382813,0.4012916564941406,0
0.6087776184082031,0.4015136718750000,0
0.6091117858886719,0.4015136718750000,0
0.6088125228881835,0.4011251449584961,0
0.6089275360107421,0.4011251449584961,0
0.6089698791503906,0.4021677017211914,0
0.6088027954101562,0.4021677017211914,0
0.6088869094848632,0.4014741897583008,0
0.6087266921997070,0.4014741897583008,0
0.6090156555175781,0.4013986587524414,0
0.6089315414428711,0.4013986587524414,0
0.6084846496582031,0.4012161254882812,0
0.6084611892700195,0.4012161254882812,0
0.6079725265502930,0.4001060485839844,0
0.6075880050659179,0.4001060485839844,0
0.6071371078491211,0.4001781463623047,0
0.6064275741577149,0.4001781463623047,0
0.6058748245239257,0.3983144760131836,0
0.6049209594726562,0.3983144760131836,0
0.6045993804931641,0.3967054367065430,0
0.6036186218261719,0.3967054367065430,0
0.6025074005126952,0.3947639465332031,0
0.6016490936279296,0.3947639465332031,0
0.6004617691040038,0.3923315048217773,0
0.5995399475097656,0.3923315048217773,0
0.5988693237304688,0.3916088104248047,0
0.5980619430541992,0.3916088104248047,0
0.5975944519042968,0.3899682998657226,0
0.5971813201904297,0.3899682998657226,0
0.5973552703857422,0.3895648956298828,0
0.5973518371582031,0.3895648956298828,0
0.5971990585327148,0.3897411346435547,0
0.5975881576538086,0.3897411346435547,0
0.5976013183593750,0.3896759033203125,0
0.5979154586791992,0.3896759033203125,0
0.5982902526855468,0.3912277221679688,0
0.5985374450683594,0.3912277221679688,0
0.5988601684570313,0.3913564682006836,0
0.5991193771362304,0.3913564682006836,0
0.5998294830322265,0.3920448303222656,0
0.6002185821533202,0.3920448303222656,0
0.6003845214843749,0.3927469253540039,0
0.6008926391601562,0.3927469253540039,0
0.6008777618408203,0.3928945541381836,0
0.6012084960937499,0.3928945541381836,0
0.6014047622680664,0.3942655563354492,0
0.6015140533447265,0.3942655563354492,0
0.6016788482666016,0.3939805984497070,0
0.6016788482666016,0.3939805984497070,0
0.6023025512695312,0.3944000244140625,0
0.6024953842163085,0.3944000244140625,0
0.6024702072143554,0.3948085784912109,0
0.6028518676757812,0.3948085784912109,0
0.6027271270751953,0.3947599411010742,0
0.6029708862304687,0.3947599411010742,0
0.6031929016113281,0.3960262298583984,0
0.6031808853149414,0.3960262298583984,0
0.6033468246459961,0.3958042144775391,0
0.6034040451049805,0.3958042144775391,0
0.6040025711059570,0.3962963104248047,0
0.6041748046875000,0.3962963104248047,0
0.6041999816894531,0.3966979980468750,0
0.6045793533325196,0.3966979980468750,0
0.6045461654663086,0.3966436386108398,0
0.6047544479370117,0.3966436386108398,0
0.6048465728759765,0.3978246688842773,0
0.6048540115356446,0.3978246688842773,0
0.6049243927001953,0.3973691940307617,0
0.6048545837402344,0.3973691940307617,0
0.6053209304809570,0.3975608825683594,0
0.6054141998291015,0.3975608825683594,0
0.6052305221557617,0.3977428436279297,0
0.6054697036743164,0.3977428436279297,0
0.6052179336547852,0.3973686218261719,0
0.6052339553833007,0.3973686218261719,0
0.6052654266357421,0.3982326507568359,0
0.6051063537597656,0.3982326507568359,0
0.6050783157348633,0.3975580215454101,0
0.6048316955566406,0.3975580215454101,0
0.6053243637084961,0.3974859237670899,0
0.6052991867065429,0.3974859237670899,0
0.6050445556640625,0.3975654602050781,0
0.6052831649780274,0.3975654602050781,0
0.6049673080444335,0.3971626281738281,0
0.6051366806030273,0.3971626281738281,0
0.6051000595092774,0.3980770111083984,0
0.6049684524536133,0.3980770111083984,0
0.6049581527709961,0.3975374221801758,0
0.6048906326293945,0.3975374221801758,0
0.6053638458251953,0.3976604461669922,0
0.6054594039916992,0.3976604461669922,0
0.6052900314331054,0.3979139328002930,0
0.6056224822998046,0.3979139328002930,0
0.6054559707641601,0.3977153778076172,0
0.6055492401123047,0.3977153778076172,0
0.6056837081909180,0.3987253189086914,0
0.6056705474853515,0.3987253189086914,0
0.6056819915771484,0.3983356475830078,0
0.6056499481201172,0.3983356475830078,0
0.6061237335205077,0.3985673904418945,0
0.6062891006469726,0.3985673904418945,0
0.6061632156372070,0.3988603591918945,0
0.6064470291137695,0.3988603591918945,0
0.6063302993774414,0.3987138748168945,0
0.6065294265747070,0.3987138748168945,0
0.6065906524658203,0.3998113632202148,0
0.6065534591674805,0.3998113632202148,0
0.6065763473510742,0.3993484497070313,0
0.6065643310546874,0.3993484497070313,0
0.6070604324340820,0.3995710372924804,0
0.6072532653808593,0.3995710372924804,0
0.6070512771606446,0.3998548507690430,0
0.6073802947998047,0.3998548507690430,0
0.6071428298950196,0.3996849060058594,0
0.6073350906372070,0.3996849060058594,0
0.6074048995971679,0.4006856918334961,0
0.6073802947998047,0.4006856918334961,0
0.6072446823120117,0.4001667022705078,0
0.6071880340576171,0.4001667022705078,0
0.6077562332153320,0.4003509521484375,0
0.6078466415405274,0.4003509521484375,0
0.6076372146606445,0.4005357742309570,0
0.6079524993896485,0.4005357742309570,0
0.6077739715576171,0.4003452301025390,0
0.6079364776611328,0.4003452301025390,0
0.6079662322998046,0.4013111114501953,0
0.6078620910644531,0.4013111114501953,0
0.6078443527221680,0.4007938385009766,0
0.6077493667602539,0.4007938385009766,0
0.6083089828491210,0.4009162902832031,0
0.6083890914916992,0.4009162902832031,0
0.6082437515258788,0.4011011123657227,0
0.6084674835205078,0.4011011123657227,0
0.6082775115966796,0.4008081436157226,0
0.6084680557250977,0.4008081436157226,0
0.6084697723388671,0.4017442703247070,0
0.6083885192871094,0.4017442703247070,0
0.6083238601684570,0.4012550354003906,0
0.6082202911376953,0.4012550354003906,0
0.6087913513183594,0.4013792037963867,0
0.6088651657104492,0.4013792037963867,0
0.6087226867675781,0.4015640258789062,0
0.6089561462402343,0.4015640258789062,0
0.6087415695190429,0.4012950897216797,0
0.6089527130126953,0.4012950897216797,0
0.6089057922363281,0.4021928787231445,0
0.6087793350219727,0.4021928787231445,0
0.6086345672607422,0.4015417098999023,0
0.6085081100463867,0.4015417098999023,0
0.6089767456054688,0.4014221191406250,0
0.6088222503662110,0.4014221191406250,0
0.6084497451782226,0.4012327194213867,0
0.6083312988281250,0.4012327194213867,0
0.6078294754028321,0.4001918792724609,0
0.6074317932128906,0.4001918792724609,0
0.6070289611816406,0.4000871658325195,0
0.6062891006469726,0.4000871658325195,0
0.6054851531982421,0.3981771469116211,0
0.6045673370361327,0.3981771469116211,0
0.6043733596801758,0.3965005874633789,0
0.6032918930053711,0.3965005874633789,0
0.6021331787109375,0.3945196151733398,0
0.6012920379638672,0.3945196151733398,0
0.6001962661743164,0.3922559738159180,0
0.5993837356567383,0.3922559738159180,0
0.5986621856689452,0.3916265487670899,0
0.5979555130004882,0.3916265487670899,0
0.5973724365234375,0.3899854660034179,0
0.5969959259033203,0.3899854660034179,0
0.5973827362060546,0.3896329879760742,0
0.5973089218139648,0.3896329879760742,0
0.5972253799438476,0.3898750305175781,0
0.5975698471069336,0.3898750305175781,0
0.5975807189941406,0.3899946212768555,0
0.5981140136718750,0.3899946212768555,0
0.5984035491943359,0.3914731979370117,0
0.5986118316650391,0.3914731979370117,0
0.5988796234130859,0.3915956497192383,0
0.5991445541381836,0.3915956497192383,0
0.6000068664550781,0.3923257827758789,0
0.6003353118896484,0.3923257827758789,0
0.6004148483276367,0.3929855346679688,0
0.6009607315063477,0.3929855346679688,0
0.6009687423706055,0.3931880950927734,0
0.6013961791992187,0.3931880950927734,0
0.6015769958496093,0.3944086074829101,0
0.6016147613525390,0.3944086074829101,0
0.6016204833984374,0.3941688537597656,0
0.6016828536987304,0.3941688537597656,0
0.6024719238281250,0.3944778442382812,0
0.6025663375854492,0.3944778442382812,0
0.6029216766357421,0.3948617935180664,0
0.6025966644287110,0.3950260162353516,0
0.6026006698608398,0.3950260162353516,0
0.6035511016845703,0.3954505920410156,0
0.6034721374511719,0.3959323883056641,0
0.6038309097290039,0.3959323883056641,0
0.6038080215454101,0.3960245132446289,0
0.6041187286376953,0.3960245132446289,0
0.6042743682861328,0.3971597671508789,0
0.6044076919555664,0.3971597671508789,0
0.6042760848999024,0.3968799591064453,0
0.6042652130126953,0.3968799591064453,0
0.6050382614135742,0.3972587585449219,0
0.6050056457519531,0.3972587585449219,0
0.6048637390136719,0.3974504470825195,0
0.6051881790161132,0.3974504470825195,0
0.6049707412719726,0.3973377227783203,0
0.6051435470581055,0.3973377227783203,0
0.6051584243774414,0.3982143402099609,0
0.6050634384155273,0.3982143402099609,0
0.6049673080444335,0.3976816177368164,0
0.6047790527343749,0.3976816177368164,0
0.6054170608520507,0.3976644515991211,0
0.6053352355957031,0.3976644515991211,0
0.6050331115722656,0.3976959228515625,0
0.6052242279052734,0.3976959228515625,0
0.6049713134765625,0.3973279953002929,0
0.6051126480102539,0.3973279953002929,0
0.6050405502319336,0.3980598449707031,0
0.6048923492431640,0.3980598449707031,0
0.6047704696655273,0.3974756240844726,0
0.6047069549560546,0.3974756240844726,0
0.6052991867065429,0.3975122451782226,0
0.6053100585937500,0.3975122451782226,0
0.6049907684326171,0.3976392745971680,0
0.6052728652954101,0.3976392745971680,0
0.6050954818725586,0.3974241256713867,0
0.6052917480468750,0.3974241256713867,0
0.6053106307983398,0.3983470916748047,0
0.6052207946777344,0.3983470916748047,0
0.6051132202148437,0.3978813171386719,0
0.6051034927368164,0.3978813171386719,0
0.6058502197265625,0.3981227874755859,0
0.6058387756347656,0.3981227874755859,0
0.6056722640991211,0.3983728408813477,0
0.6059303283691406,0.3983728408813477,0
0.6058593750000000,0.3983476638793945,0
0.6060756683349610,0.3983476638793945,0
0.6061368942260742,0.3993438720703125,0
0.6061632156372070,0.3993438720703125,0
0.6060848236083984,0.3989101409912109,0
0.6060270309448242,0.3989101409912109,0
0.6068063735961914,0.3992053985595703,0
0.6067531585693359,0.3992053985595703,0
0.6066444396972656,0.3994331359863281,0
0.6069528579711914,0.3994331359863281,0
0.6067966461181641,0.3994234085083008,0
0.6070896148681640,0.3994234085083008,0
0.6071851730346679,0.4002788543701172,0
0.6070529937744140,0.4002788543701172,0
0.6069545745849609,0.3998903274536132,0
0.6069025039672852,0.3998903274536132,0
0.6076320648193360,0.4000448226928711,0
0.6076017379760742,0.4000448226928711,0
0.6074289321899414,0.4002920150756836,0
0.6076475143432617,0.4002920150756836,0
0.6074861526489258,0.4001289367675781,0
0.6077178955078125,0.4001289367675781,0
0.6076967239379882,0.4009975433349609,0
0.6076498031616211,0.4009975433349609,0
0.6074890136718750,0.4005483627319336,0
0.6074512481689452,0.4005483627319336,0
0.6081756591796875,0.4006668090820312,0
0.6081184387207031,0.4006668090820312,0
0.6079278945922851,0.4008075714111328,0
0.6081504821777344,0.4008075714111328,0
0.6079811096191406,0.4006399154663086,0
0.6082408905029296,0.4006399154663086,0
0.6082082748413086,0.4014822006225586,0
0.6080846786499023,0.4014822006225586,0
0.6079776763916015,0.4010856628417969,0
0.6079107284545898,0.4010856628417969,0
0.6086763381958008,0.4012035369873047,0
0.6086345672607422,0.4012035369873047,0
0.6084257125854492,0.4013334274291992,0
0.6085681915283203,0.4013334274291992,0
0.6084817886352539,0.4011640548706055,0
0.6086431503295898,0.4011640548706055,0
0.6086580276489257,0.4019153594970703,0
0.6084978103637695,0.4019153594970703,0
0.6082872390747071,0.4014415740966797,0
0.6081521987915038,0.4014415740966797,0
0.6088090896606445,0.4011720657348632,0
0.6084548950195312,0.4011720657348632,0
0.6080326080322266,0.4007795333862305,0
0.6078083038330078,0.4007795333862305,0
0.6073167800903320,0.3998491287231445,0
0.6069671630859375,0.3998491287231445,0
0.6063846588134766,0.3994108200073242,0
0.6055669784545898,0.3994108200073242,0
0.6046686172485352,0.3974721908569336,0
0.6036163330078125,0.3974721908569336,0
0.6034715652465820,0.3955444335937500,0
0.6021829605102539,0.3955444335937500,0
0.6009962081909179,0.3934175491333008,0
0.6000446319580078,0.3934175491333008,0
0.5990335464477539,0.3913644790649414,0
0.5983995437622071,0.3913644790649414,0
0.5976722717285156,0.3905473709106445,0
0.5969615936279297,0.3905473709106445,0
0.5964460372924805,0.3892290115356445,0
0.5960964202880860,0.3892290115356445,0
0.5967990875244140,0.3889503479003906,0
0.5966514587402344,0.3889503479003906,0
0.5964763641357421,0.3892187118530273,0
0.5964603424072266,0.3892564773559570,0
0.5977764129638672,0.3900169372558593,0
0.5983051300048828,0.3911298751831054,0
0.5996166229248047,0.3917810440063477,0
0.5996915817260742,0.3925724029541016,0
0.5998214721679688,0.3926542282104492,0
0.6003530502319335,0.3926542282104492,0
0.6011077880859375,0.3931446075439453,0
0.6010139465332031,0.3935623168945312,0
0.6009281158447265,0.3937076568603515,0
0.6019529342651367,0.3940498352050781,0
0.6018367767333984,0.3946792602539063,0
0.6017068862915039,0.3944881439208984,0
0.6018259048461914,0.3946363449096680,0
0.6028747558593750,0.3950288772583008,0
0.6027168273925781,0.3956897735595703,0
0.6027025222778321,0.3956577301025391,0
0.6031351089477539,0.3960462570190429,0
0.6036466598510742,0.3967163085937500,0
0.6037227630615234,0.3966922760009766,0
0.6035825729370117,0.3965497970581054,0
0.6039716720581054,0.3965234756469727,0
0.6042514801025390,0.3973142623901367,0
0.6042308807373047,0.3969966888427734,0
0.6043424606323242,0.3971632003784180,0
0.6045644760131835,0.3969097137451172,0
0.6043287277221679,0.3975294113159180,0
0.6043893814086914,0.3971883773803711,0
0.6042961120605469,0.3969005584716797,0
0.6047401428222656,0.3968639373779297,0
0.6042646408081055,0.3970602035522461,0
0.6043756484985351,0.3970327377319336,0
0.6046852111816406,0.3968290328979492,0
0.6046852111816406,0.3969274520874023,0
0.6043247222900391,0.3969995498657227,0
0.6038228988647460,0.3969692230224609,0
0.6046085357666016,0.3969949722290039,0
0.6043933868408203,0.3969949722290039,0
0.6040626525878906,0.3970184326171875,0
0.6040214538574219,0.3971826553344727,0
0.6048105239868163,0.3972770690917969,0
0.6046783447265625,0.3978298187255859,0
0.6043945312500000,0.3975831985473633,0
0.6048248291015624,0.3977680206298828,0
0.6051235198974609,0.3982870101928711,0
0.6051115036010742,0.3981920242309570,0
0.6048717498779297,0.3980718612670898,0
0.6052482604980468,0.3980415344238281,0
0.6055824279785156,0.3988105773925781,0
0.6055841445922852,0.3985382080078125,0
0.6057157516479492,0.3988203048706054,0
0.6060499191284180,0.3985845565795899,0
0.6059658050537109,0.3992694854736328,0
0.6059984207153321,0.3990406036376953,0
0.6062072753906250,0.3993152618408203,0
0.6065574645996094,0.3990760803222656,0
0.6064144134521484,0.3998176574707031,0
0.6064264297485351,0.3994731903076172,0
0.6065505981445313,0.3994983673095703,0
0.6068761825561523,0.3994983673095703,0
0.6067153930664062,0.4001329421997070,0
0.6067399978637695,0.3998628616333008,0
0.6068458557128906,0.3998348236083984,0
0.6074008941650391,0.3998348236083984,0
0.6070672988891601,0.4001695632934570,0
0.6072269439697265,0.4001369476318359,0
0.6071508407592773,0.4000682830810547,0
0.6076183319091797,0.4000608444213867,0
0.6072824478149413,0.4003938674926757,0
0.6074352264404297,0.4004018783569336,0
0.6077041625976562,0.4003675460815430,0
0.6078689575195312,0.4005208969116211,0
0.6075365066528320,0.4005981445312500,0
0.6076435089111328,0.4005626678466797,0
0.6079570770263671,0.4005947113037109,0
0.6081504821777344,0.4007394790649414,0
0.6078163146972656,0.4008893966674805,0
0.6080045700073242,0.4008956909179687,0
0.6081899642944336,0.4008888244628906,0
0.6083822250366211,0.4009717941284179,0
0.6079862594604492,0.4010416030883789,0
0.6075725555419922,0.4010416030883789,0
0.6083032608032226,0.4009723663330078,0
0.6084554672241210,0.4010890960693359,0
0.6078346252441406,0.4009300231933594,0
0.6072904586791992,0.4009300231933594,0
0.6076875686645508,0.4005237579345703,0
0.6076875686645508,0.4002868652343750,0
0.6064510345458984,0.3994279861450195,0
0.6055206298828125,0.3987064361572266,0
0.6050296783447265,0.3971643447875977,0
0.6039070129394531,0.3974275588989258,0
0.6017120361328124,0.3954437255859375,0
0.6012725830078125,0.3942443847656250,0
0.5999038696289062,0.3919698715209961,0
0.5985380172729492,0.3919698715209961,0
0.5966606140136719,0.3900255203247070,0
0.5962268829345703,0.3891128540039062,0
0.5957319259643554,0.3879541397094726,0
0.5949771881103515,0.3879346847534180,0
0.5941801071166992,0.3871273040771484,0
0.5940645217895507,0.3872817993164062,0
0.5952747344970702,0.3875055313110352,0
0.5950870513916016,0.3881984710693359,0
0.5952146530151367,0.3883741378784180,0
0.5955905914306641,0.3884639739990234,0
0.5971269607543945,0.3891866683959961,0
0.5969621658325195,0.3898326873779297,0
0.5978639602661132,0.3907361984252929,0
0.5985254287719727,0.3905439376831055,0
0.5987674713134765,0.3914834976196289,0
0.5987989425659179,0.3914331436157226,0
0.5992435455322266,0.3919384002685547,0
0.5996944427490234,0.3917272567749023,0
0.5997173309326171,0.3924179077148438,0
0.5997573852539062,0.3923212051391601,0
0.6001682281494141,0.3926336288452149,0
0.6006483078002930,0.3926336288452149,0
0.6007204055786133,0.3933712005615234,0
0.6007204055786133,0.3932744979858399,0
0.6010894775390625,0.3936824798583984,0
0.6018362045288086,0.3938272476196289,0
0.6017526626586914,0.3943330764770508,0
0.6021034240722656,0.3943931579589844,0
0.6025943756103516,0.3946523666381836,0
0.6027729034423828,0.3948663711547851,0
0.6025279998779297,0.3951375961303711,0
0.6022155761718749,0.3951375961303711,0
0.6030647277832031,0.3952411651611328,0
0.6033657073974609,0.3954059600830078,0
0.6029577255249023,0.3954797744750976,0
0.6026029586791992,0.3954797744750976,0
0.6035299301147461,0.3955112457275390,0
0.6035299301147461,0.3955810546875000,0
0.6029056549072266,0.3954523086547851,0
0.6025188446044921,0.3953762054443359,0
0.6033067703247070,0.3953264236450195,0
0.6030469894409179,0.3954551696777344,0
0.6024026870727539,0.3954322814941406,0
0.6027688980102539,0.3954322814941406,0
0.6034921646118164,0.3960594177246093,0
0.6028003692626953,0.3957864761352539,0
0.6028003692626953,0.3958951950073242,0
0.6038692474365234,0.3960285186767578,0
0.6036134719848633,0.3965509414672851,0
0.6032667160034180,0.3963163375854492,0
0.6033571243286132,0.3964616775512695,0
0.6042537689208984,0.3966121673583984,0
0.6041084289550781,0.3969703674316406,0
0.6039453506469726,0.3970149993896484,0
0.6043035507202148,0.3970596313476563,0
0.6045948028564453,0.3977039337158203,0
0.6047979354858398,0.3975133895874023,0
0.6043092727661132,0.3976272583007812,0
0.6055068969726562,0.3977983474731445,0
0.6052877426147460,0.3977983474731445,0
0.6051504135131835,0.3979969024658203,0
0.6053289413452149,0.3979969024658203,0
0.6053186416625976,0.3981542587280273,0
0.6057861328124999,0.3981542587280273,0
0.6056121826171875,0.3985834121704102,0
0.6055389404296875,0.3985834121704102,0
0.6051990509033203,0.3985914230346679,0
0.6052717208862305,0.3985914230346679,0
0.6062965393066406,0.3986520767211914,0
0.6061094284057617,0.3986520767211914,0
0.6058708190917969,0.3987527847290039,0
0.6060373306274414,0.3987527847290039,0
0.6059635162353515,0.3988363265991211,0
0.6064052581787109,0.3988363265991211,0
0.6061803817749023,0.3992214202880859,0
0.6060825347900390,0.3992214202880859,0
0.6058330535888672,0.3991985321044922,0
0.6058444976806641,0.3991985321044922,0
0.6068498611450195,0.3992729187011719,0
0.6066232681274414,0.3992729187011719,0
0.6063692092895507,0.3993392944335937,0
0.6065219879150391,0.3993392944335937,0
0.6064041137695312,0.3994302749633789,0
0.6069311141967774,0.3994302749633789,0
0.6067016601562499,0.3997552871704101,0
0.6065523147583007,0.3997552871704101,0
0.6063188552856446,0.3997112274169922,0
0.6062673568725586,0.3997112274169922,0
0.6073379516601562,0.3998090744018555,0
0.6071348190307617,0.3998090744018555,0
0.6068630218505859,0.3998336791992188,0
0.6070976257324219,0.3998336791992188,0
0.6069957733154296,0.3999446868896484,0
0.6073448181152343,0.3999446868896484,0
0.6071268081665039,0.4002388000488281,0
0.6069911956787110,0.4002388000488281,0
0.6066141128540039,0.4000877380371093,0
0.6065837860107421,0.4000877380371093,0
0.6074815750122070,0.3998548507690430,0
0.6070867538452148,0.3998548507690430,0
0.6065265655517578,0.3994480133056640,0
0.6063657760620117,0.3994480133056640,0
0.6057998657226562,0.3986967086791992,0
0.6057312011718750,0.3986967086791992,0
0.6048105239868163,0.3976816177368164,0
0.6038789749145508,0.3976816177368164,0
0.6027797698974610,0.3958951950073242,0
0.6016633987426757,0.3958951950073242,0
0.6015277862548828,0.3935800552368164,0
0.6000286102294922,0.3935800552368164,0
0.5985866546630859,0.3910663604736328,0
0.5970788955688476,0.3898286819458008,0
0.5963670730590820,0.3889371871948242,0
0.5960512161254883,0.3889371871948242,0
0.5948095321655273,0.3872629165649414,0
0.5938911437988281,0.3872629165649414,0
0.5930402755737304,0.3859737396240234,0
0.5926609039306641,0.3859737396240234,0
0.5934946060180664,0.3854885101318359,0
0.5931684494018554,0.3854885101318359,0
0.5930082321166992,0.3856338500976562,0
0.5934253692626953,0.3856338500976562,0
0.5935598373413086,0.3862169265747070,0
0.5943935394287109,0.3862169265747070,0
0.5945280075073242,0.3871124267578125,0
0.5947534561157226,0.3871124267578125,0
0.5948106765747070,0.3878963470458984,0
0.5952089309692382,0.3878963470458984,0
0.5965822219848632,0.3886018753051758,0
0.5966394424438476,0.3886018753051758,0
0.5966314315795899,0.3892467498779297,0
0.5970273971557617,0.3892467498779297,0
0.5970348358154297,0.3896518707275390,0
0.5976207733154296,0.3896518707275390,0
0.5975315093994140,0.3901262283325195,0
0.5974748611450195,0.3901262283325195,0
0.5972894668579102,0.3903545379638672,0
0.5974170684814453,0.3903545379638672,0
0.5985414505004882,0.3906217575073242,0
0.5983434677124023,0.3906217575073242,0
0.5982358932495117,0.3909862518310547,0
0.5986621856689452,0.3909862518310547,0
0.5987251281738281,0.3914566040039062,0
0.5994174957275390,0.3914566040039062,0
0.5993545532226562,0.3920465469360351,0
0.5993900299072266,0.3920465469360351,0
0.5993007659912110,0.3926050186157227,0
0.5995273590087891,0.3926050186157227,0
0.6006963729858398,0.3928556442260742,0
0.6005756378173828,0.3928556442260742,0
0.6004308700561524,0.3932573318481445,0
0.6007862091064453,0.3932573318481445,0
0.6008422851562499,0.3936716079711914,0
0.6013984680175781,0.3936716079711914,0
0.6012222290039062,0.3940458297729492,0
0.6011844635009765,0.3940458297729492,0
0.6009756088256836,0.3943181991577148,0
0.6010030746459961,0.3943181991577148,0
0.6021457672119140,0.3943759918212891,0
0.6018928527832031,0.3943759918212891,0
0.6016347885131835,0.3944715499877929,0
0.6017772674560546,0.3944715499877929,0
0.6016948699951171,0.3945510864257812,0
0.6021646499633789,0.3945510864257812,0
0.6018356323242188,0.3946329116821289,0
0.6016096115112305,0.3946329116821289,0
0.6013721466064453,0.3946060180664062,0
0.6013263702392578,0.3946060180664062,0
0.6023117065429687,0.3944480895996094,0
0.6019689559936523,0.3944480895996094,0
0.6016502380371094,0.3944435119628906,0
0.6018058776855468,0.3944435119628906,0
0.6016942977905273,0.3944795608520508,0
0.6021778106689453,0.3944795608520508,0
0.6018053054809570,0.3945859909057617,0
0.6016725540161133,0.3945859909057617,0
0.6013452529907226,0.3947725296020508,0
0.6014373779296874,0.3947725296020508,0
0.6025766372680664,0.3948772430419922,0
0.6023151397705078,0.3948772430419922,0
0.6021148681640625,0.3950168609619141,0
0.6023345947265625,0.3950168609619141,0
0.6022762298583985,0.3952486038208008,0
0.6028575897216797,0.3952486038208008,0
0.6026836395263672,0.3955129623413086,0
0.6025966644287110,0.3955129623413086,0
0.6023769378662109,0.3958282470703125,0
0.6024398803710938,0.3958282470703125,0
0.6035728454589844,0.3959827423095703,0
0.6033599853515624,0.3959827423095703,0
0.6032489776611328,0.3961990356445312,0
0.6034852981567382,0.3961990356445312,0
0.6034784317016602,0.3965332031250000,0
0.6040437698364257,0.3965332031250000,0
0.6037891387939452,0.3968021392822266,0
0.6037319183349609,0.3968021392822266,0
0.6035333633422851,0.3970481872558594,0
0.6036026000976562,0.3970481872558594,0
0.6046800613403320,0.3970693588256836,0
0.6044351577758789,0.3970693588256836,0
0.6042417526245117,0.3973262786865234,0
0.6044895172119140,0.3973262786865234,0
0.6044929504394531,0.3975849151611328,0
0.6050336837768554,0.3975849151611328,0
0.6048122406005859,0.3977628707885742,0
0.6047161102294921,0.3977628707885742,0
0.6045112609863281,0.3980850219726562,0
0.6046108245849610,0.3980850219726562,0
0.6056459426879882,0.3980936050415039,0
0.6054107666015625,0.3980936050415039,0
0.6051761627197265,0.3981611251831055,0
0.6054233551025391,0.3981611251831055,0
0.6053735733032226,0.3984054565429687,0
0.6058742523193359,0.3984054565429687,0
0.6055818557739258,0.3985078811645508,0
0.6054273605346679,0.3985078811645508,0
0.6052465438842773,0.3987487792968750,0
0.6052808761596680,0.3987487792968750,0
0.6063034057617187,0.3987178802490234,0
0.6059589385986328,0.3987178802490234,0
0.6057729721069336,0.3987630844116211,0
0.6059978485107421,0.3987630844116211,0
0.6058456420898437,0.3989479064941406,0
0.6065414428710937,0.3989810943603516,0
0.6060173034667968,0.3990692138671875,0
0.6057460784912109,0.3991476058959961,0
0.6067949295043945,0.3992403030395508,0
0.6062210083007812,0.3992866516113281,0
0.6060161590576172,0.3995092391967773,0
0.6070375442504883,0.3994766235351562,0
0.6065099716186523,0.3996294021606445,0
0.6061740875244140,0.3996854782104492,0
0.6071582794189453,0.3996608734130859,0
0.6065546035766601,0.3994211196899414,0
0.6062707901000977,0.3995635986328125,0
0.6068441390991210,0.3992517471313476,0
0.6056631088256835,0.3986852645874023,0
0.6049713134765625,0.3983327865600586,0
0.6047859191894531,0.3977754592895508,0
0.6024896621704101,0.3950357437133789,0
0.6015409469604492,0.3952892303466797,0
0.5994678497314453,0.3930770874023438,0
0.5966508865356445,0.3890247344970703,0
0.5956174850463867,0.3892925262451172,0
0.5941732406616210,0.3862066268920898,0
0.5923124313354492,0.3849369049072265,0
0.5916234970092773,0.3843938827514649,0
0.5918535232543946,0.3846490859985351,0
0.5919565200805664,0.3850318908691406,0
0.5919565200805664,0.3851749420166016,0
0.5937406539916992,0.3858186721801758,0
0.5936307907104492,0.3862443923950195,0
0.5939706802368164,0.3862443923950195,0
0.5942104339599609,0.3874666213989258,0
0.5946138381958007,0.3874666213989258,0
0.5959476470947266,0.3881229400634765,0
0.5959756851196288,0.3881229400634765,0
0.5961032867431640,0.3888130187988281,0
0.5965541839599610,0.3888130187988281,0
0.5967996597290038,0.3894332885742187,0
0.5975440979003906,0.3894332885742187,0
0.5973649978637695,0.3897726058959961,0
0.5973970413208007,0.3897726058959961,0
0.5973815917968750,0.3905153274536133,0
0.5975778579711913,0.3905153274536133,0
0.5987291336059570,0.3906858444213867,0
0.5985391616821288,0.3906858444213867,0
0.5984378814697265,0.3910657882690430,0
0.5988103866577148,0.3910657882690430,0
0.5989076614379882,0.3916540145874023,0
0.5995845794677734,0.3916540145874023,0
0.5994478225708008,0.3919435501098633,0
0.5994901657104492,0.3919435501098633,0
0.5995038986206055,0.3926713943481445,0
0.5996738433837890,0.3926713943481445,0
0.6007965087890624,0.3928596496582031,0
0.6006202697753906,0.3928596496582031,0
0.6005659103393555,0.3932687759399414,0
0.6008388519287109,0.3932687759399414,0
0.6009000778198242,0.3936573028564453,0
0.6014877319335937,0.3936573028564453,0
0.6012674331665039,0.3936109542846680,0
0.6011112213134765,0.3936109542846680,0
0.6010271072387695,0.3941808700561523,0
0.6010946273803711,0.3941808700561523,0
0.6019289016723632,0.3940658569335938,0
0.6015678405761719,0.3940658569335938,0
0.6013933181762695,0.3940996170043945,0
0.6014842987060547,0.3940996170043945,0
0.6014247894287109,0.3942277908325195,0
0.6019140243530273,0.3942277908325195,0
0.6014596939086914,0.3938861846923828,0
0.6012474060058594,0.3938861846923828,0
0.6010688781738281,0.3942506790161133,0
0.6010517120361328,0.3942506790161133,0
0.6018997192382812,0.3940092086791992,0
0.6014585494995117,0.3940092086791992,0
0.6013257980346679,0.3940240859985352,0
0.6014911651611328,0.3940240859985352,0
0.6013721466064453,0.3941768646240234,0
0.6019042968750000,0.3941768646240234,0
0.6015758514404297,0.3941019058227539,0
0.6014408111572266,0.3941019058227539,0
0.6013257980346679,0.3945991516113281,0
0.6013830184936523,0.3945991516113281,0
0.6023408889770507,0.3945711135864258,0
0.6020095825195312,0.3945711135864258,0
0.6018997192382812,0.3947908401489258,0
0.6022190093994141,0.3947908401489258,0
0.6022258758544922,0.3951930999755859,0
0.6028381347656250,0.3951930999755859,0
0.6025096893310546,0.3951650619506836,0
0.6024610519409179,0.3951650619506836,0
0.6025033950805664,0.3957773208618164,0
0.6027997970581055,0.3958602905273437,0
0.6027997970581055,0.3957624435424805,0
0.6029989242553710,0.3958133697509765,0
0.6029388427734375,0.3964445114135742,0
0.6030550003051758,0.3964445114135742,0
0.6039756774902344,0.3964015960693359,0
0.6036552429199219,0.3964015960693359,0
0.6035488128662109,0.3966121673583984,0
0.6038303375244141,0.3966121673583984,0
0.6037839889526367,0.3969371795654297,0
0.6043252944946289,0.3969371795654297,0
0.6040231704711914,0.3969120025634765,0
0.6038944244384765,0.3969120025634765,0
0.6038698196411133,0.3974876403808594,0
0.6039041519165039,0.3974876403808594,0
0.6047956466674804,0.3973978042602539,0
0.6044471740722656,0.3973978042602539,0
0.6042915344238281,0.3975791931152344,0
0.6044734954833985,0.3975791931152344,0
0.6044906616210938,0.3978166580200195,0
0.6051864624023438,0.3978166580200195,0
0.6048105239868163,0.3978355407714844,0
0.6046422958374024,0.3978355407714844,0
0.6046628952026367,0.3983425140380859,0
0.6046817779541015,0.3983425140380859,0
0.6055669784545898,0.3981943130493164,0
0.6052350997924805,0.3981943130493164,0
0.6049924850463867,0.3982904434204101,0
0.6052299499511719,0.3982904434204101,0
0.6051624298095702,0.3984930038452149,0
0.6057580947875977,0.3984930038452149,0
0.6054067611694336,0.3983900070190430,0
0.6052213668823242,0.3983900070190430,0
0.6052087783813477,0.3990022659301758,0
0.6052156448364258,0.3990022659301758,0
0.6061243057250977,0.3987813949584961,0
0.6057718276977538,0.3987813949584961,0
0.6056322097778321,0.3988437652587891,0
0.6058176040649413,0.3988437652587891,0
0.6057197570800781,0.3990715026855469,0
0.6062650680541992,0.3990715026855469,0
0.6058931350708008,0.3989089965820312,0
0.6057317733764648,0.3989089965820312,0
0.6056488037109374,0.3994176864624023,0
0.6057123184204102,0.3994176864624023,0
0.6065643310546874,0.3992168426513672,0
0.6061552047729492,0.3992168426513672,0
0.6059812545776367,0.3992403030395508,0
0.6061878204345703,0.3992403030395508,0
0.6061037063598632,0.3994709014892578,0
0.6065963745117188,0.3994709014892578,0
0.6061849594116211,0.3993679046630859,0
0.6059812545776367,0.3993679046630859,0
0.6059177398681640,0.3999000549316406,0
0.6059228897094726,0.3999000549316406,0
0.6067113876342773,0.3994754791259765,0
0.6062255859375000,0.3994754791259765,0
0.6059326171875000,0.3992677688598633,0
0.6058948516845702,0.3992677688598633,0
0.6055772781372070,0.3989130020141601,0
0.6057134628295898,0.3989130020141601,0
0.6048431396484375,0.3978258132934570,0
0.6040466308593749,0.3978258132934570,0
0.6034212112426758,0.3970745086669922,0
0.6025972366333008,0.3970745086669922,0
0.6025754928588867,0.3949607849121093,0
0.6010871887207031,0.3949607849121093,0
0.5998546600341796,0.3926307678222656,0
0.5987062454223633,0.3926307678222656,0
0.5974182128906250,0.3903636932373047,0
0.5967641830444336,0.3903636932373047,0
0.5954177856445312,0.3878316879272461,0
0.5941200256347656,0.3878316879272461,0
0.5933200836181640,0.3865756988525391,0
0.5926202774047852,0.3865756988525391,0
0.5928983688354492,0.3851474761962890,0
0.5922060012817383,0.3851474761962890,0
0.5919805526733398,0.3847131729125977,0
0.5920526504516601,0.3847131729125977,0
0.5921138763427735,0.3850553512573242,0
0.5928068161010742,0.3850553512573242,0
0.5927879333496093,0.3853637695312500,0
0.5929738998413085,0.3853637695312500,0
0.5933086395263671,0.3867702484130859,0
0.5937715530395508,0.3867702484130859,0
0.5948919296264649,0.3873041152954101,0
0.5949834823608399,0.3873041152954101,0
0.5952123641967774,0.3880748748779297,0
0.5957221984863281,0.3880748748779297,0
0.5960048675537110,0.3889125823974609,0
0.5967985153198242,0.3889125823974609,0
0.5966663360595703,0.3891517639160156,0
0.5968231201171875,0.3891517639160156,0
0.5969810485839844,0.3902275085449219,0
0.5971240997314453,0.3902275085449219,0
0.5980825424194336,0.3902893066406250,0
0.5978816986083985,0.3902893066406250,0
0.5979154586791992,0.3906623840332031,0
0.5981958389282226,0.3906623840332031,0
0.5982816696166992,0.3912151336669922,0
0.5989706039428710,0.3912151336669922,0
0.5986902236938476,0.3913009643554687,0
0.5987771987915039,0.3913009643554687,0
0.5989025115966796,0.3923961639404297,0
0.5990936279296875,0.3923961639404297,0
0.6000526428222656,0.3924362182617188,0
0.5998672485351563,0.3924362182617188,0
0.5999679565429688,0.3928562164306640,0
0.6003215789794921,0.3928562164306640,0
0.6002746582031250,0.3933671951293945,0
0.6008920669555664,0.3933671951293945,0
0.6006391525268554,0.3933111190795898,0
0.6005292892456054,0.3933111190795898,0
0.6006334304809570,0.3942249298095703,0
0.6006591796874999,0.3942249298095703,0
0.6014837265014649,0.3939548492431640,0
0.6011804580688477,0.3939548492431640,0
0.6010511398315429,0.3940000534057617,0
0.6011833190917969,0.3940000534057617,0
0.6011009216308594,0.3942066192626953,0
0.6015466690063477,0.3942066192626953,0
0.6011301040649414,0.3937974929809570,0
0.6009298324584961,0.3937974929809570,0
0.6009223937988281,0.3943914413452148,0
0.6008005142211914,0.3943914413452148,0
0.6014808654785156,0.3939542770385742,0
0.6010654449462890,0.3939542770385742,0
0.6008485794067383,0.3938999176025391,0
0.6009841918945312,0.3938999176025391,0
0.6008914947509766,0.3939971923828125,0
0.6013835906982422,0.3939971923828125,0
0.6009023666381835,0.3936876296997070,0
0.6007295608520508,0.3936876296997070,0
0.6007770538330078,0.3944766998291016,0
0.6008354187011719,0.3944766998291016,0
0.6015735626220703,0.3941740036010742,0
0.6012239456176758,0.3941740036010742,0
0.6012834548950196,0.3942815780639649,0
0.6014619827270508,0.3942815780639649,0
0.6013418197631836,0.3946500778198242,0
0.6019363403320312,0.3946500778198242,0
0.6016199111938476,0.3944921493530273,0
0.6015729904174805,0.3944921493530273,0
0.6016759872436523,0.3954391479492188,0
0.6017091751098632,0.3954391479492188,0
0.6024827957153320,0.3952795028686523,0
0.6022321701049804,0.3952795028686523,0
0.6022939682006836,0.3954786300659179,0
0.6025400161743164,0.3954786300659179,0
0.6024953842163085,0.3958814620971680,0
0.6030910491943359,0.3958814620971680,0
0.6027019500732421,0.3957681655883789,0
0.6026887893676758,0.3957681655883789,0
0.6028146743774414,0.3967020034790039,0
0.6030441284179687,0.3964754104614258,0
0.6031991958618164,0.3967494964599609,0
0.6035402297973632,0.3967031478881836,0
0.6032890319824219,0.3972341537475586,0
0.6039762496948242,0.3969818115234375,0
0.6036209106445313,0.3967981338500977,0
0.6036895751953125,0.3977880477905273,0
0.6038766860961914,0.3976512908935547,0
0.6040431976318359,0.3976581573486328,0
0.6040151596069335,0.3971614837646484,0
0.6039768218994140,0.3981079101562500,0
0.6042074203491211,0.3978618621826172,0
0.6043693542480468,0.3976135253906250,0
0.6044340133666992,0.3976135253906250,0
0.6045267105102539,0.3983116149902344,0
0.6050073623657226,0.3981548309326172,0
0.6045473098754882,0.3978481292724609,0
0.6046955108642578,0.3982275009155273,0
0.6047286987304688,0.3984397888183593,0
0.6051092147827148,0.3983922958374023,0
0.6048088073730469,0.3984443664550781,0
0.6049163818359374,0.3984443664550781,0
0.6052688598632813,0.3985908508300781,0
0.6052688598632813,0.3985748291015625,0
0.6049884796142578,0.3986434936523438,0
0.6049238204956054,0.3991601943969726,0
0.6054559707641601,0.3988111495971680,0
0.6051853179931640,0.3988111495971680,0
0.6051509857177734,0.3989370346069336,0
0.6051509857177734,0.3995029449462891,0
0.6057540893554687,0.3991058349609375,0
0.6053764343261718,0.3987350463867188,0
0.6053787231445312,0.3995000839233399,0
0.6059246063232422,0.3993661880493164,0
0.6058782577514649,0.3991676330566406,0
0.6055177688598633,0.3987390518188477,0
0.6053243637084961,0.3991344451904297,0
0.6053146362304688,0.3989879608154297,0
0.6041112899780273,0.3978641510009766,0
0.6042966842651367,0.3977302551269531,0
0.6030916213989258,0.3966522216796875,0
0.6027236938476562,0.3956256866455078,0
0.6005058288574219,0.3932825088500976,0
0.5994335174560547,0.3937042236328125,0
0.5982078552246094,0.3913988113403320,0
0.5960145950317383,0.3886751174926757,0
0.5950624465942382,0.3875404357910156,0
0.5932983398437500,0.3864383697509766,0
0.5930082321166992,0.3864383697509766,0
0.5918483734130859,0.3849952697753906,0
0.5919845581054687,0.3850221633911133,0
0.5919496536254882,0.3851509094238281,0
0.5924091339111328,0.3852424621582031,0
0.5932456970214843,0.3858879089355469,0
0.5934259414672851,0.3868400573730469,0
0.5943031311035156,0.3871393203735352,0
0.5948335647583007,0.3876691818237304,0
0.5953668594360352,0.3879981994628906,0
0.5963699340820312,0.3889205932617187,0
0.5962720870971679,0.3890979766845703,0
0.5965370178222656,0.3895912170410156,0
0.5966903686523437,0.3895912170410156,0
0.5975372314453125,0.3903156280517578,0
0.5974531173706055,0.3903024673461914,0
0.5977563858032227,0.3907064437866211,0
0.5978330612182617,0.3912042617797851,0
0.5985071182250976,0.3912460327148438,0
0.5985071182250976,0.3913152694702148,0
0.5989030838012696,0.3917186737060547,0
0.5986667633056640,0.3924716949462890,0
0.5994272232055664,0.3923870086669922,0
0.5994380950927735,0.3923870086669922,0
0.5999170303344726,0.3927921295166015,0
0.5997201919555664,0.3935216903686523,0
0.6004566192626953,0.3933877944946289,0
0.6002964019775391,0.3936721801757813,0
0.6004846572875976,0.3941139221191406,0
0.6005315780639648,0.3942941665649414,0
0.6007907867431640,0.3940727233886719,0
0.6008182525634765,0.3936676025390625,0
0.6008932113647460,0.3944892883300781,0
0.6008165359497070,0.3946918487548828,0
0.6008960723876953,0.3942415237426758,0
0.6009080886840820,0.3937923431396484,0
0.6008359909057617,0.3946752548217773,0
0.6008874893188476,0.3943702697753906,0
0.6007478713989257,0.3941402435302734,0
0.6007478713989257,0.3937322616577149,0
0.6007106781005859,0.3945585250854492,0
0.6006786346435546,0.3943319320678711,0
0.6006746292114258,0.3942100524902344,0
0.6006523132324219,0.3936309814453125,0
0.6006477355957031,0.3946792602539063,0
0.6008079528808593,0.3942855834960937,0
0.6008611679077148,0.3944452285766601,0
0.6008829116821289,0.3939359664916992,0
0.6010379791259766,0.3949779510498047,0
0.6011369705200195,0.3947181701660156,0
0.6012845993041992,0.3943611145019531,0
0.6014608383178711,0.3943611145019531,0
0.6015232086181640,0.3955558776855468,0
0.6016187667846680,0.3953035354614258,0
0.6018756866455078,0.3950128555297852,0
0.6020175933837890,0.3950128555297852,0
0.6021640777587890,0.3962076187133789,0
0.6021640777587890,0.3958648681640625,0
0.6023426055908203,0.3956073760986328,0
0.6025794982910156,0.3956954956054687,0
0.6030784606933594,0.3964570999145507,0
0.6031568527221679,0.3973754882812500,0
0.6035562515258789,0.3967689514160156,0
0.6036678314208984,0.3976993560791016,0
0.6040735244750977,0.3975111007690429,0
0.6038263320922851,0.3971918106079101,0
0.6039356231689453,0.3976558685302734,0
0.6039699554443360,0.3978984832763672,0
0.6042835235595703,0.3978984832763672,0
0.6041078567504883,0.3975305557250977,0
0.6042394638061523,0.3979665756225586,0
0.6042005538940429,0.3982097625732422,0
0.6045158386230468,0.3980764389038086,0
0.6045381546020507,0.3978023529052734,0
0.6046113967895508,0.3982086181640625,0
0.6044998168945312,0.3984729766845703,0
0.6047298431396484,0.3983596801757812,0
0.6047286987304688,0.3980438232421875,0
0.6048414230346679,0.3984621047973633,0
0.6051195144653320,0.3987436294555664,0
0.6049507141113281,0.3986194610595703,0
0.6049741744995117,0.3987710952758789,0
0.6049392700195312,0.3987710952758789,0
0.6053924560546875,0.3989816665649414,0
0.6052339553833007,0.3988889694213867,0
0.6052448272705078,0.3989679336547852,0
0.6051092147827148,0.3989679336547852,0
0.6053598403930663,0.3992340087890625,0
0.6053598403930663,0.3990915298461914,0
0.6053707122802734,0.3991790771484375,0
0.6053020477294921,0.3995756149291992,0
0.6054794311523437,0.3990566253662109,0
0.6050554275512695,0.3991012573242188,0
0.6049839019775390,0.3987722396850586,0
0.6048168182373047,0.3991504669189453,0
0.6042629241943359,0.3977748870849609,0
0.6034641265869141,0.3978143692016601,0
0.6024839401245117,0.3966848373413086,0
0.6023591995239258,0.3965600967407226,0
0.6008583068847656,0.3940040588378906,0
0.5995656967163085,0.3912889480590820,0
0.5973249435424804,0.3917781829833984,0
0.5953405380249023,0.3896461486816406,0
0.5953405380249023,0.3885274887084961,0
0.5929527282714844,0.3867668151855468,0
0.5928440093994141,0.3867588043212891,0
0.5921894073486328,0.3853546142578125,0
0.5918174743652344,0.3854175567626953,0
0.5920131683349609,0.3853019714355468,0
0.5920211791992187,0.3853019714355468,0
0.5922351837158203,0.3858541488647461,0
0.5927993774414062,0.3858541488647461,0
0.5928989410400390,0.3860910415649414,0
0.5932931900024414,0.3860910415649414,0
0.5937526702880859,0.3878190994262695,0
0.5941017150878906,0.3878190994262695,0
0.5946985244750976,0.3880640029907226,0
0.5948604583740235,0.3880640029907226,0
0.5954761505126953,0.3887666702270507,0
0.5958904266357422,0.3887666702270507,0
0.5960369110107422,0.3895368576049805,0
0.5965930938720703,0.3895368576049805,0
0.5965576171875000,0.3895946502685547,0
0.5967561721801757,0.3895946502685547,0
0.5970508575439453,0.3909679412841797,0
0.5971715927124023,0.3909679412841797,0
0.5975275039672852,0.3906847000122070,0
0.5974342346191406,0.3906847000122070,0
0.5978479385375977,0.3911035537719726,0
0.5980802536010742,0.3911035537719726,0
0.5981185913085937,0.3916265487670899,0
0.5985780715942383,0.3916265487670899,0
0.5984630584716797,0.3915275573730468,0
0.5986701965332031,0.3915275573730468,0
0.5989534378051757,0.3929225921630859,0
0.5990352630615234,0.3929225921630859,0
0.5994512557983398,0.3927869796752930,0
0.5993894577026367,0.3927869796752930,0
0.5998723983764648,0.3931680679321289,0
0.6001344680786133,0.3931680679321289,0
0.6000675201416016,0.3936756134033203,0
0.6004629135131836,0.3936756134033203,0
0.6003599166870117,0.3935314178466797,0
0.6003890991210937,0.3935314178466797,0
0.6005784988403320,0.3946495056152344,0
0.6005384445190429,0.3946495056152344,0
0.6007593154907226,0.3942008972167969,0
0.6005704879760742,0.3942008972167969,0
0.6009063720703125,0.3943016052246094,0
0.6009504318237304,0.3943016052246094,0
0.6006992340087890,0.3944280624389648,0
0.6010454177856445,0.3944280624389648,0
0.6007644653320312,0.3939062118530273,0
0.6007541656494141,0.3939062118530273,0
0.6007329940795898,0.3948514938354492,0
0.6006208419799804,0.3948514938354492,0
0.6007444381713867,0.3941877365112305,0
0.6004766464233399,0.3941877365112305,0
0.6007741928100586,0.3941556930541992,0
0.6007959365844726,0.3941556930541992,0
0.6005424499511719,0.3943222045898437,0
0.6008434295654297,0.3943222045898437,0
0.6005910873413086,0.3938547134399414,0
0.6006792068481445,0.3938547134399414,0
0.6007455825805664,0.3949550628662109,0
0.6007072448730468,0.3949550628662109,0
0.6009212493896484,0.3944349288940430,0
0.6007701873779296,0.3944349288940430,0
0.6011564254760742,0.3946323394775391,0
0.6012788772583008,0.3946323394775391,0
0.6012187957763672,0.3949625015258789,0
0.6015850067138672,0.3949625015258789,0
0.6013418197631836,0.3947404861450195,0
0.6015169143676757,0.3947404861450195,0
0.6016622543334961,0.3959741592407227,0
0.6016954421997071,0.3959741592407227,0
0.6019626617431640,0.3955701828002929,0
0.6018133163452148,0.3955701828002929,0
0.6022298812866210,0.3958614349365234,0
0.6024095535278320,0.3958614349365234,0
0.6023042678833007,0.3962036132812500,0
0.6026882171630860,0.3962036132812500,0
0.6024850845336914,0.3960187911987305,0
0.6025880813598633,0.3960187911987305,0
0.6027780532836914,0.3971820831298828,0
0.6027620315551757,0.3971820831298828,0
0.6029588699340820,0.3968027114868164,0
0.6028100967407226,0.3968027114868164,0
0.6032907485961914,0.3969789505004883,0
0.6034069061279297,0.3969789505004883,0
0.6033210754394531,0.3973148345947266,0
0.6036861419677734,0.3973148345947266,0
0.6033828735351562,0.3970458984375000,0
0.6034784317016602,0.3970458984375000,0
0.6036724090576172,0.3982109069824218,0
0.6035768508911132,0.3982109069824218,0
0.6037221908569336,0.3976902008056640,0
0.6035739898681640,0.3976902008056640,0
0.6039974212646484,0.3978452682495117,0
0.6040620803833008,0.3978452682495117,0
0.6039682388305664,0.3980804443359375,0
0.6042303085327149,0.3980804443359375,0
0.6039733886718750,0.3977039337158203,0
0.6040672302246094,0.3977039337158203,0
0.6041467666625976,0.3987854003906250,0
0.6039962768554688,0.3987854003906250,0
0.6041942596435547,0.3982229232788086,0
0.6040454864501953,0.3982229232788086,0
0.6044025421142578,0.3984100341796875,0
0.6044597625732422,0.3984100341796875,0
0.6043767929077148,0.3986383438110351,0
0.6046892166137695,0.3986383438110351,0
0.6044586181640624,0.3983413696289063,0
0.6045204162597656,0.3983413696289063,0
0.6047000885009766,0.3993741989135742,0
0.6046508789062500,0.3993741989135742,0
0.6047790527343749,0.3989147186279297,0
0.6046365737915039,0.3989147186279297,0
0.6050949096679688,0.3990045547485351,0
0.6051630020141602,0.3990045547485351,0
0.6050525665283203,0.3992546081542969,0
0.6052957534790039,0.3992546081542969,0
0.6051046371459960,0.3988792419433594,0
0.6050966262817382,0.3988792419433594,0
0.6051904678344726,0.3997781753540039,0
0.6049776077270508,0.3997781753540039,0
0.6049026489257813,0.3990034103393554,0
0.6045902252197265,0.3990034103393554,0
0.6047241210937500,0.3985324859619140,0
0.6044340133666992,0.3985324859619140,0
0.6038818359375000,0.3979539871215820,0
0.6036031723022460,0.3979539871215820,0
0.6028724670410156,0.3964422225952148,0
0.6021675109863281,0.3964422225952148,0
0.6014842987060547,0.3958551406860352,0
0.6004388809204101,0.3958551406860352,0
0.5995805740356445,0.3932413101196289,0
0.5981878280639649,0.3932413101196289,0
0.5975715637207031,0.3909324645996093,0
0.5964368820190430,0.3909324645996093,0
0.5953903198242188,0.3889595031738281,0
0.5946556091308594,0.3889595031738281,0
0.5936931610107422,0.3869407653808594,0
0.5930225372314453,0.3869407653808594,0
0.5926620483398437,0.3866598129272461,0
0.5921373367309570,0.3866598129272461,0
0.5920824050903321,0.3856458663940430,0
0.5918386459350585,0.3856458663940430,0
0.5923645019531250,0.3857837677001953,0
0.5925693511962891,0.3857837677001953,0
0.5927026748657226,0.3864160537719726,0
0.5932256698608398,0.3864160537719726,0
0.5933332443237305,0.3867296218872070,0
0.5937652587890625,0.3867296218872070,0
0.5942310333251953,0.3884851455688477,0
0.5945526123046875,0.3884851455688477,0
0.5948816299438476,0.3886384963989258,0
0.5951396942138671,0.3886384963989258,0
0.5958812713623046,0.3893405914306641,0
0.5962749481201172,0.3893405914306641,0
0.5963905334472656,0.3900444030761719,0
0.5968963623046875,0.3900444030761719,0
0.5968894958496094,0.3900644302368164,0
0.5971607208251953,0.3900644302368164,0
0.5973930358886719,0.3913433074951172,0
0.5974536895751953,0.3913433074951172,0
0.5976230621337890,0.3910554885864257,0
0.5976613998413086,0.3910554885864257,0
0.5982055664062500,0.3914474487304687,0
0.5983028411865234,0.3914474487304687,0
0.5982250213623047,0.3919263839721679,0
0.5986352920532226,0.3919263839721679,0
0.5985677719116210,0.3919223785400390,0
0.5988246917724609,0.3919223785400390,0
0.5990203857421875,0.3932922363281250,0
0.5991085052490234,0.3932922363281250,0
0.5992864608764649,0.3931039810180664,0
0.5993190765380859,0.3931039810180664,0
0.6000017166137696,0.3935457229614258,0
0.6002140045166016,0.3935457229614258,0
0.6000858306884765,0.3940011978149414,0
0.6004508972167969,0.3940011978149414,0
0.6003833770751953,0.3938186645507812,0
0.6005939483642578,0.3938186645507812,0
0.6006917953491211,0.3949213027954102,0
0.6006700515747070,0.3949213027954102,0
0.6007015228271484,0.3944189071655274,0
0.6005647659301757,0.3944189071655274,0
0.6010231018066406,0.3945133209228516,0
0.6010242462158203,0.3945133209228516,0
0.6007226943969727,0.3946632385253906,0
0.6009578704833984,0.3946632385253906,0
0.6007255554199219,0.3942266464233398,0
0.6008331298828125,0.3942266464233398,0
0.6007867813110351,0.3950592041015625,0
0.6006151199340820,0.3950592041015625,0
0.6005676269531249,0.3943857192993164,0
0.6003656387329102,0.3943857192993164,0
0.6008056640625000,0.3943891525268555,0
0.6007696151733398,0.3943891525268555,0
0.6005332946777343,0.3944784164428711,0
0.6007587432861328,0.3944784164428711,0
0.6006122589111328,0.3942312240600586,0
0.6007381439208984,0.3942312240600586,0
0.6008371353149414,0.3951742172241211,0
0.6008388519287109,0.3951742172241211,0
0.6008022308349609,0.3947513580322266,0
0.6007930755615234,0.3947513580322266,0
0.6013916015624999,0.3949939727783203,0
0.6014963150024414,0.3949939727783203,0
0.6013692855834961,0.3952909469604492,0
0.6016862869262695,0.3952909469604492,0
0.6015724182128906,0.3951953887939453,0
0.6019008636474609,0.3951953887939453,0
0.6018459320068359,0.3962905883789062,0
0.6018013000488281,0.3962905883789062,0
0.6017910003662109,0.3958877563476562,0
0.6017280578613281,0.3958877563476562,0
0.6022670745849609,0.3961469650268555,0
0.6024038314819335,0.3961469650268555,0
0.6022321701049804,0.3964553833007812,0
0.6024908065795899,0.3964553833007812,0
0.6024730682373046,0.3963483810424804,0
0.6025903701782226,0.3963483810424804,0
0.6027545928955078,0.3974103927612305,0
0.6027683258056641,0.3974103927612305,0
0.6028032302856445,0.3970247268676758,0
0.6026996612548828,0.3970247268676758,0
0.6033742904663085,0.3972484588623047,0
0.6034200668334960,0.3972484588623047,0
0.6032209396362305,0.3976072311401367,0
0.6035556793212891,0.3976072311401367,0
0.6033943176269531,0.3973651885986328,0
0.6036203384399413,0.3973651885986328,0
0.6036872863769531,0.3983825683593750,0
0.6036752700805664,0.3983825683593750,0
0.6036048889160156,0.3979070663452148,0
0.6035018920898437,0.3979070663452148,0
0.6041358947753906,0.3980775833129883,0
0.6041799545288086,0.3980775833129883,0
0.6037645339965820,0.3981525421142578,0
0.6037473678588867,0.3982429504394531,0
0.6043653488159180,0.3983442306518555,0
0.6043922424316406,0.3983442306518555,0
0.6042114257812500,0.3985622406005859,0
0.6044563293457031,0.3985622406005859,0
0.6042623519897461,0.3983619689941406,0
0.6044660568237304,0.3983619689941406,0
0.6044328689575195,0.3993061065673828,0
0.6043424606323242,0.3993061065673828,0
0.6043127059936523,0.3986618041992188,0
0.6042463302612304,0.3986618041992188,0
0.6047979354858398,0.3988574981689453,0
0.6047510147094727,0.3988574981689453,0
0.6045959472656249,0.3990617752075195,0
0.6048660278320312,0.3990617752075195,0
0.6046594619750977,0.3988380432128906,0
0.6048728942871093,0.3988380432128906,0
0.6049444198608398,0.3997524261474609,0
0.6048110961914063,0.3997524261474609,0
0.6046703338623046,0.3992271423339844,0
0.6045976638793945,0.3992271423339844,0
0.6051326751708984,0.3992872238159180,0
0.6051418304443359,0.3992872238159180,0
0.6049135208129882,0.3992609024047851,0
0.6050090789794922,0.3992609024047851,0
0.6046239852905273,0.3987504959106445,0
0.6045930862426757,0.3987504959106445,0
0.6042697906494140,0.3990274429321289,0
0.6037536621093750,0.3990274429321289,0
0.6031568527221679,0.3975391387939453,0
0.6024421691894531,0.3975391387939453,0
0.6024536132812500,0.3962928771972656,0
0.6015707015991211,0.3962928771972656,0
0.6005121231079101,0.3945590972900391,0
0.5996349334716796,0.3945590972900391,0
0.5983194351196289,0.3920185089111328,0
0.5973157882690430,0.3920185089111328,0
0.5961936950683594,0.3904867172241211,0
0.5950195312500000,0.3904867172241211,0
0.5939781188964843,0.3879152297973633,0
0.5929452896118164,0.3879152297973633,0
0.5929183959960938,0.3864120483398437,0
0.5923307418823242,0.3864120483398437,0
0.5918563842773438,0.3856561660766601,0
0.5918357849121093,0.3856561660766601,0
0.5915267944335937,0.3852607727050781,0
0.5917905807495117,0.3852607727050781,0
0.5919445037841796,0.3862758636474609,0
0.5921602249145508,0.3862758636474609,0
0.5923175811767578,0.3863977432250976,0
0.5925029754638672,0.3863977432250976,0
0.5935375213623046,0.3872119903564453,0
0.5939300537109374,0.3872119903564453,0
0.5941148757934570,0.3881526947021484,0
0.5947740554809570,0.3881526947021484,0
0.5948804855346680,0.3885560989379883,0
0.5953771591186523,0.3885560989379883,0
0.5956363677978516,0.3899654388427734,0
0.5958372116088867,0.3899654388427734,0
0.5958824157714844,0.3899133682250976,0
0.5960231781005859,0.3899133682250976,0
0.5968923568725586,0.3903059005737304,0
0.5970108032226562,0.3903059005737304,0
0.5968694686889648,0.3907407760620117,0
0.5972373962402343,0.3907407760620117,0
0.5972013473510742,0.3907899856567383,0
0.5975950241088867,0.3907899856567383,0
0.5976539611816406,0.3918800354003906,0
0.5977048873901367,0.3918800354003906,0
0.5976940155029297,0.3917678833007812,0
0.5978204727172851,0.3917678833007812,0
0.5985654830932617,0.3922199249267578,0
0.5987331390380859,0.3922199249267578,0
0.5987331390380859,0.3927663803100586,0
0.5991182327270508,0.3927663803100586,0
0.5990615844726562,0.3928316116333008,0
0.5994787216186523,0.3928316116333008,0
0.5996114730834960,0.3940149307250976,0
0.5996051788330078,0.3940149307250976,0
0.5995159149169922,0.3937242507934570,0
0.5996303558349609,0.3937242507934570,0
0.6002717971801758,0.3939645767211914,0
0.6002906799316406,0.3939645767211914,0
0.6001201629638672,0.3942134857177734,0
0.6003644943237304,0.3942134857177734,0
0.6002208709716796,0.3940675735473633,0
0.6004171371459961,0.3940675735473633,0
0.6003850936889649,0.3948926925659180,0
0.6002386093139648,0.3948926925659180,0
0.6000497817993163,0.3942775726318359,0
0.5998878479003906,0.3942775726318359,0
0.6005699157714843,0.3943307876586914,0
0.6004840850830078,0.3943307876586914,0
0.6001779556274414,0.3943273544311524,0
0.6004589080810546,0.3943273544311524,0
0.6002529144287109,0.3940652847290039,0
0.6003925323486328,0.3940652847290039,0
0.6003032684326172,0.3948091506958007,0
0.6001739501953125,0.3948091506958007,0
0.5999645233154297,0.3942924499511719,0
0.5999284744262695,0.3942924499511719,0
0.6005887985229492,0.3943519592285156,0
0.6005601882934570,0.3943519592285156,0
0.6003713607788086,0.3945951461791992,0
0.6006528854370117,0.3945951461791992,0
0.6005544662475586,0.3944057464599609,0
0.6008085250854492,0.3944057464599609,0
0.6007747650146484,0.3953739166259765,0
0.6006832122802734,0.3953739166259765,0
0.6005830764770508,0.3950437545776367,0
0.6006362915039062,0.3950437545776367,0
0.6014047622680664,0.3952909469604492,0
0.6013858795166015,0.3952909469604492,0
0.6012863159179688,0.3955650329589844,0
0.6015581130981446,0.3955650329589844,0
0.6014636993408203,0.3955913543701172,0
0.6018590927124023,0.3955913543701172,0
0.6018613815307617,0.3965383529663086,0
0.6017955780029297,0.3965383529663086,0
0.6016714096069335,0.3962259292602539,0
0.6015935897827148,0.3962259292602539,0
0.6024312973022461,0.3965148925781250,0
0.6024135589599610,0.3965148925781250,0
0.6022836685180664,0.3967718124389648,0
0.6025669097900390,0.3967718124389648,0
0.6024850845336914,0.3967203140258789,0
0.6028318405151367,0.3967203140258789,0
0.6028375625610352,0.3976375579833984,0
0.6027900695800781,0.3976375579833984,0
0.6025960922241210,0.3972959518432617,0
0.6025566101074219,0.3972959518432617,0
0.6034000396728515,0.3975162506103516,0
0.6033611297607422,0.3975162506103516,0
0.6032100677490234,0.3976861953735352,0
0.6034744262695312,0.3976861953735352,0
0.6033531188964844,0.3975969314575195,0
0.6036300659179688,0.3975969314575195,0
0.6035116195678710,0.3984231948852539,0
0.6034612655639648,0.3984231948852539,0
0.6032426834106445,0.3979837417602539,0
0.6031831741333008,0.3979837417602539,0
0.6040094375610351,0.3981582641601563,0
0.6039241790771485,0.3981582641601563,0
0.6037651062011719,0.3983282089233398,0
0.6039813995361328,0.3983282089233398,0
0.6038103103637695,0.3981508255004882,0
0.6040769577026367,0.3981508255004882,0
0.6040637969970702,0.3989942550659180,0
0.6039762496948242,0.3989942550659180,0
0.6037136077880859,0.3986251831054687,0
0.6036672592163086,0.3986251831054687,0
0.6045289993286133,0.3987407684326172,0
0.6044797897338867,0.3987407684326172,0
0.6042354583740234,0.3988483428955078,0
0.6044918060302734,0.3988483428955078,0
0.6042978286743164,0.3987121582031250,0
0.6045141220092773,0.3987121582031250,0
0.6044557571411132,0.3994583129882812,0
0.6043258666992187,0.3994583129882812,0
0.6039854049682617,0.3988134384155274,0
0.6038068771362305,0.3988134384155274,0
0.6043893814086914,0.3985073089599609,0
0.6040231704711914,0.3985073089599609,0
0.6035430908203124,0.3979436874389649,0
0.6032644271850586,0.3979436874389649,0
0.6025777816772461,0.3967935562133789,0
0.6021257400512695,0.3967935562133789,0
0.6013875961303711,0.3960176467895508,0
0.6002975463867187,0.3960176467895508,0
0.5990810394287109,0.3935050964355469,0
0.5978336334228516,0.3935050964355469,0
0.5975715637207031,0.3911705017089844,0
0.5961467742919921,0.3911705017089844,0
0.5949417114257812,0.3888845443725586,0
0.5940113067626953,0.3888845443725586,0
0.5929538726806640,0.3867931365966797,0
0.5923027038574219,0.3867931365966797,0
0.5916543960571289,0.3859628677368164,0
0.5909889221191406,0.3859628677368164,0
0.5905019760131835,0.3847217559814453,0
0.5903022766113281,0.3847217559814453,0
0.5910415649414062,0.3846519470214844,0
0.5911188125610352,0.3846519470214844,0
0.5910638809204102,0.3851509094238281,0
0.5915800094604492,0.3851509094238281,0
0.5917728424072265,0.3856784820556641,0
0.5924531936645507,0.3856784820556641,0
0.5927604675292969,0.3871788024902343,0
0.5931055068969726,0.3871788024902343,0
0.5932588577270508,0.3875461578369140,0
0.5936571121215820,0.3875461578369140,0
0.5946813583374023,0.3883415222167969,0
0.5947683334350585,0.3891620635986328,0
0.5950132369995117,0.3892456054687500,0
0.5954875946044922,0.3892456054687500,0
0.5961730957031249,0.3903470993041992,0
0.5962457656860352,0.3903425216674805,0
0.5960592269897461,0.3902687072753906,0
0.5970966339111328,0.3906789779663086,0
0.5969936370849609,0.3906789779663086,0
0.5969747543334961,0.3911350250244141,0
0.5969747543334961,0.3913129806518554,0
0.5982261657714844,0.3917661666870117,0
