REDsignal,IRsignal,synced
0.7941576004028320,0.4028858184814453,0
0.7866262435913086,0.4117589950561523,0
0.7813894271850585,0.4117589950561523,0
0.7928695678710938,0.4091606140136719,0
0.7883005142211914,0.4091606140136719,0
0.7966318130493164,0.4089117050170898,0
0.8085027694702148,0.4089117050170898,0
0.8008678436279296,0.4150423049926757,0
0.7877557754516601,0.4150423049926757,0
0.7903793334960937,0.4091217041015625,0
0.8010766983032226,0.4091217041015625,0
0.7988359451293945,0.4169872283935547,0
0.7874725341796874,0.4169872283935547,0
0.7984067916870117,0.4137685775756836,0
0.7931470870971680,0.4137685775756836,0
0.8008935928344726,0.4125509262084961,0
0.8123033523559570,0.4125509262084961,0
0.8042135238647461,0.4176813125610351,0
0.7906185150146484,0.4176813125610351,0
0.7927499771118164,0.4111381530761719,0
0.8029203414916992,0.4111381530761719,0
0.8004484176635742,0.4181625366210938,0
0.7886764526367187,0.4181625366210938,0
0.7991907119750976,0.4144237518310547,0
0.7934812545776367,0.4144237518310547,0
0.8008758544921875,0.4125429153442383,0
0.8121477127075195,0.4125429153442383,0
0.8036893844604492,0.4173070907592774,0
0.7900571823120117,0.4173070907592774,0
0.7919780731201171,0.4106231689453125,0
0.8020826339721679,0.4106231689453125,0
0.7996330261230469,0.4177093505859375,0
0.7881202697753906,0.4177093505859375,0
0.7988508224487304,0.4142131805419922,0
0.7932529449462891,0.4142131805419922,0
0.8006835937500000,0.4126659393310547,0
0.8122386932373047,0.4126659393310547,0
0.8040596008300781,0.4176784515380859,0
0.7906545639038086,0.4176784515380859,0
0.7926967620849609,0.4114088058471679,0
0.8030427932739258,0.4114088058471679,0
0.8008529663085937,0.4188858032226562,0
0.7895153045654296,0.4188858032226562,0
0.8004821777343750,0.4157238006591797,0
0.7948110580444335,0.4157238006591797,0
0.8024888992309570,0.4143070220947265,0
0.8139913558959960,0.4143070220947265,0
0.8061029434204101,0.4194620132446289,0
0.7927007675170898,0.4194620132446289,0
0.7946285247802735,0.4197040557861328,0
0.8028591156005859,0.4075349807739257,0
0.8026416778564452,0.4176218032836914,0
0.7969322204589844,0.4176218032836914,0
0.8044200897216797,0.4160568237304688,0
0.7965700149536132,0.4160568237304688,0
0.8080192565917969,0.4211397171020508,0
0.7946359634399414,0.4211397171020508,0
0.7966129302978515,0.4147087097167969,0
0.8069915771484375,0.4147087097167969,0
0.8047691345214844,0.4223527908325195,0
0.7937227249145508,0.4223527908325195,0
0.8045906066894531,0.4191181182861328,0
0.7988788604736328,0.4191181182861328,0
0.8062036514282226,0.4174999237060547,0
0.8179178237915039,0.4174999237060547,0
0.8097867965698242,0.4226858139038086,0
0.7964212417602539,0.4226858139038086,0
0.7983987808227538,0.4162290573120117,0
0.8086721420288085,0.4162290573120117,0
0.8065807342529296,0.4238828659057617,0
0.7955337524414062,0.4238828659057617,0
0.8063558578491211,0.4205612182617187,0
0.8005308151245117,0.4205612182617187,0
0.8074710845947265,0.4184583663940429,0
0.8185541152954101,0.4184583663940429,0
0.8096946716308594,0.4224386215209961,0
0.7951818466186523,0.4224386215209961,0
0.7958238601684570,0.4135694503784180,0
0.8041042327880860,0.4135694503784180,0
0.7994150161743164,0.4169775009155273,0
0.7849496841430664,0.4169775009155273,0
0.7920661926269531,0.4070217132568359,0
0.7807994842529297,0.4070217132568359,0
0.7814168930053711,0.3938621520996093,0
0.7848655700683593,0.3938621520996093,0
0.7686836242675781,0.3851583480834961,0
0.7466978073120117,0.3851583480834961,0
0.7410696029663085,0.3659437179565430,0
0.7439020156860351,0.3659437179565430,0
0.7358762741088867,0.3638288497924805,0
0.7200588226318360,0.3638288497924805,0
0.7280776977539062,0.3558986663818359,0
0.7208536148071288,0.3558986663818359,0
0.7279798507690429,0.3537237167358399,0
0.7407159805297852,0.3537237167358399,0
0.7344989776611328,0.3617008209228516,0
0.7238903045654297,0.3617008209228516,0
0.7294504165649414,0.3608877182006836,0
0.7439220428466796,0.3608877182006836,0
0.7463258743286133,0.3760459899902344,0
0.7405677795410156,0.3760459899902344,0
0.7560356140136718,0.3807203292846680,0
0.7544500350952148,0.3807203292846680,0
0.7647663116455078,0.3844602584838867,0
0.7793518066406250,0.3844602584838867,0
0.7731336593627930,0.3929803848266601,0
0.7615550994873047,0.3929803848266601,0
0.7652400970458985,0.3891998291015625,0
0.7768444061279297,0.3891998291015625,0
0.7760770797729492,0.3989925384521484,0
0.7664091110229492,0.3989925384521484,0
0.7784219741821289,0.3978172302246094,0
0.7734678268432617,0.3978172302246094,0
0.7810941696166992,0.3971557617187500,0
0.7937318801879882,0.3971557617187500,0
0.7862342834472656,0.4031816482543945,0
0.7734272003173828,0.4031816482543945,0
0.7762046813964844,0.3978464126586914,0
0.7868453979492187,0.3978464126586914,0
0.7852821350097656,0.4064443588256836,0
0.7751569747924805,0.4064443588256836,0
0.7865455627441406,0.4043071746826172,0
0.7808778762817382,0.4043071746826172,0
0.7878656387329102,0.4026426315307617,0
0.7999311447143554,0.4026426315307617,0
0.7917451858520508,0.4076248168945312,0
0.7784231185913085,0.4076248168945312,0
0.7807926177978516,0.4014896392822265,0
0.7909646987915039,0.4014896392822265,0
0.7889282226562500,0.4092721939086914,0
0.7783510208129882,0.4092721939086914,0
0.7892354965209961,0.4064958572387695,0
0.7830047607421875,0.4064958572387695,0
0.7895278930664062,0.4039169311523437,0
0.8013084411621093,0.4039169311523437,0
0.7926115036010742,0.4082731246948242,0
0.7789283752441406,0.4082731246948242,0
0.7809860229492187,0.4017002105712891,0
0.7907758712768554,0.4017002105712891,0
0.7886072158813476,0.4089986801147461,0
0.7779356002807617,0.4089986801147461,0
0.7887393951416015,0.4061914443969726,0
0.7824983596801758,0.4061914443969726,0
0.7889659881591796,0.4036931991577148,0
0.8008804321289062,0.4036931991577148,0
0.7924249649047851,0.4081838607788086,0
0.7788871765136719,0.4081838607788086,0
0.7812921524047851,0.4021110534667969,0
0.7913572311401367,0.4021110534667969,0
0.7894346237182617,0.4098844528198242,0
0.7793169021606445,0.4098844528198242,0
0.7902128219604492,0.4076248168945312,0
0.7842916488647461,0.4076248168945312,0
0.7907752990722656,0.4052976608276367,0
0.8030548095703125,0.4052976608276367,0
0.7946393966674804,0.4100732803344727,0
0.7812057495117187,0.4100732803344727,0
0.7838430404663086,0.4042562484741211,0
0.7938817977905274,0.4042562484741211,0
0.7920816421508788,0.4120628356933594,0
0.7820817947387695,0.4120628356933594,0
0.7929279327392578,0.4099073410034180,0
0.7869930267333984,0.4099073410034180,0
0.7935070037841797,0.4072895050048828,0
0.8056177139282227,0.4072895050048828,0
0.7971633911132813,0.4120416641235352,0
0.7837268829345703,0.4120416641235352,0
0.7862646102905273,0.4062669754028320,0
0.7963560104370117,0.4062669754028320,0
0.7943189620971679,0.4137702941894531,0
0.7844163894653320,0.4137702941894531,0
0.7952945709228515,0.4118373870849609,0
0.7891931533813477,0.4118373870849609,0
0.7956504821777344,0.4091760635375977,0
0.8077783584594727,0.4091760635375977,0
0.7992736816406250,0.4135150909423828,0
0.7857101440429687,0.4135150909423828,0
0.7884704589843750,0.4080602645874024,0
0.7984411239624023,0.4080602645874024,0
0.7965642929077148,0.4154268264770508,0
0.7868345260620117,0.4154268264770508,0
0.7976886749267578,0.4137210845947266,0
0.7914070129394531,0.4137210845947266,0
0.7978460311889648,0.4108692169189453,0
0.8099630355834960,0.4108692169189453,0
0.8013868331909180,0.4150663375854492,0
0.7875715255737304,0.4150663375854492,0
0.7901962280273437,0.4092201232910156,0
0.7997062683105468,0.4092201232910156,0
0.7970495223999023,0.4153415679931641,0
0.7863441467285156,0.4153415679931641,0
0.7960166931152344,0.4118705749511719,0
0.7879497528076171,0.4118705749511719,0
0.7920667648315429,0.4050790786743164,0
0.8011173248291016,0.4050790786743164,0
0.7887485504150390,0.4030780792236328,0
0.7702091217041015,0.4030780792236328,0
0.7671569824218750,0.3874265670776367,0
0.7691373825073242,0.3874265670776367,0
0.7587821960449218,0.3805074691772461,0
0.7405546188354492,0.3805074691772461,0
0.7429264068603515,0.3656238555908203,0
0.7285526275634765,0.3656238555908203,0
0.7283535003662109,0.3519052505493164,0
0.7352788925170898,0.3519052505493164,0
0.7232460021972656,0.3505765914916992,0
0.7075635910034179,0.3505765914916992,0
0.7099199295043945,0.3441679000854492,0
0.7201766967773438,0.3441679000854492,0
0.7194877624511719,0.3532190322875977,0
0.7124324798583984,0.3532190322875977,0
0.7259153366088867,0.3565166473388672,0
0.7233095169067383,0.3565166473388672,0
0.7337390899658203,0.3599555969238281,0
0.7507244110107422,0.3599555969238281,0
0.7465078353881835,0.3717945098876953,0
0.7375402450561523,0.3717945098876953,0
0.7445589065551758,0.3732147216796875,0
0.7577831268310546,0.3732147216796875,0
0.7583461761474609,0.3847177505493164,0
0.7512731552124023,0.3847177505493164,0
0.7635068893432617,0.3864109039306641,0
0.7587186813354492,0.3864109039306641,0
0.7662328720092774,0.3852310180664062,0
0.7798456192016602,0.3852310180664062,0
0.7719331741333008,0.3912597656250000,0
0.7593309402465820,0.3912597656250000,0
0.7634239196777344,0.3875673294067383,0
0.7740497589111328,0.3875673294067383,0
0.7726799011230469,0.3959106445312500,0
0.7642724990844726,0.3959106445312500,0
0.7754322052001953,0.3959781646728516,0
0.7696580886840820,0.3959781646728516,0
0.7761240005493164,0.3931079864501953,0
0.7890254974365234,0.3931079864501953,0
0.7803491592407227,0.3980415344238281,0
0.7670150756835937,0.3980415344238281,0
0.7704889297485351,0.3932813644409179,0
0.7804904937744140,0.3932813644409179,0
0.7785318374633788,0.4007228851318359,0
0.7697381973266602,0.4007228851318359,0
0.7802467346191406,0.3997690200805664,0
0.7738517761230469,0.3997690200805664,0
0.7798685073852539,0.3959146499633789,0
0.7922058105468750,0.3959146499633789,0
0.7829320907592773,0.4000476837158203,0
0.7690921783447265,0.4000476837158203,0
0.7723617553710938,0.3946060180664062,0
0.7817316055297852,0.3946060180664062,0
0.7793466567993164,0.4012624740600586,0
0.7702108383178711,0.4012624740600586,0
0.7803880691528320,0.3998268127441406,0
0.7736921310424805,0.3998268127441406,0
0.7793346405029297,0.3954568862915039,0
0.7916078567504883,0.3954568862915039,0
0.7820211410522461,0.3994400024414063,0
0.7681531906127930,0.3994400024414063,0
0.7715211868286133,0.3939062118530273,0
0.7809019088745117,0.3939062118530273,0
0.7785821914672851,0.4008367538452148,0
0.7697353363037109,0.4008367538452148,0
0.7800682067871093,0.3998497009277344,0
0.7736583709716797,0.3998497009277344,0
0.7794736862182617,0.3957750320434570,0
0.7919534683227539,0.3957750320434570,0
0.7825298309326172,0.4002176284790039,0
0.7688535690307617,0.4002176284790039,0
0.7723062515258788,0.3949550628662109,0
0.7818328857421875,0.3949550628662109,0
0.7796888351440430,0.4020681381225586,0
0.7710725784301757,0.4020681381225586,0
0.7814054489135742,0.4013803482055664,0
0.7750762939453125,0.4013803482055664,0
0.7807605743408202,0.3973165512084961,0
0.7934646606445312,0.3973165512084961,0
0.7840118408203125,0.4019159317016601,0
0.7824977874755860,0.3942237854003906,0
0.7757966995239257,0.3945516586303711,0
0.7731067657470703,0.4038305282592773,0
0.7731067657470703,0.3962854385375976,0
0.7836032867431640,0.4055139541625977,0
0.7823175430297852,0.4039615631103515,0
0.7854738235473633,0.4038208007812500,0
0.7840215682983398,0.3920516967773438,0
0.7774166107177735,0.3988197326660156,0
0.7746603012084960,0.4058692932128906,0
0.7748851776123047,0.3982778549194336,0
0.7852827072143554,0.4073650360107422,0
0.7840164184570312,0.4058830261230469,0
0.7871171951293945,0.3973548889160156,0
0.7736663818359375,0.4055814743041992,0
0.7860511779785156,0.4001918792724609,0
0.7836009979248046,0.4062887191772461,0
0.7745189666748047,0.3977691650390625,0
0.7813751220703125,0.3911893844604492,0
0.7861347198486328,0.3943290710449219,0
0.7664445877075196,0.3954643249511718,0
0.7638187408447266,0.3729578018188476,0
0.7398416519165039,0.3726728439331055,0
0.7398416519165039,0.3711032867431641,0
0.7172470092773438,0.3480857849121093,0
0.7095342636108398,0.3444053649902344,0
0.7016859054565430,0.3444053649902344,0
0.6913135528564452,0.3346149444580078,0
0.6923938751220703,0.3230575561523437,0
0.6826463699340820,0.3411088943481445,0
0.6900506973266601,0.3324148178100586,0
0.6832557678222656,0.3324148178100586,0
0.6905073165893555,0.3343946456909180,0
0.6986166000366211,0.3339042663574219,0
0.6951547622680664,0.3413703918457031,0
0.7123243331909179,0.3406917572021484,0
0.7088161468505859,0.3635204315185547,0
0.7140621185302735,0.3578699111938476,0
0.7239028930664062,0.3587940216064453,0
0.7383213043212891,0.3698078155517578,0
0.7444393157958984,0.3699480056762695,0
0.7402381896972656,0.3699480056762695,0
0.7529617309570312,0.3682628631591797,0
0.7566982269287109,0.3718969345092774,0
0.7494249343872070,0.3834909439086914,0
0.7497653961181641,0.3782621383666992,0
0.7605943679809570,0.3782621383666992,0
0.7501087188720703,0.3888198852539063,0
0.7550067901611328,0.3876308441162109,0
0.7656578063964844,0.3802551269531250,0
0.7572378158569336,0.3912025451660156,0
0.7684890747070312,0.3940206527709961,0
0.7703350067138671,0.3922983169555664,0
0.7711332321166992,0.3845695495605468,0
0.7551155090332031,0.3934547424316406,0
0.7789495468139648,0.3860235214233398,0
0.7694864273071289,0.3931222915649414,0
0.7675477981567382,0.3872732162475586,0
0.7604627609252930,0.3872732162475586,0
0.7684284210205078,0.3802951812744140,0
0.7684284210205078,0.3837060928344727,0
0.7617473602294922,0.3928001403808594,0
0.7673234939575195,0.3804777145385742,0
0.7695270538330078,0.3931531906127930,0
0.7632236480712891,0.3931789398193359,0
0.7816320419311523,0.3879638671875000,0
0.7616518020629882,0.3925523757934570,0
0.7704998016357422,0.3855382919311524,0
0.7626417160034179,0.3855382919311524,0
0.7705535888671875,0.3835058212280273,0
0.7705535888671875,0.3963066101074219,0
0.7671884536743164,0.3966041564941406,0
0.7737401962280274,0.3984283447265625,0
0.7659250259399414,0.3960411071777344,0
0.7759666442871094,0.3885892868041992,0
0.7670951843261719,0.4079978942871094,0
0.7670951843261719,0.3926548004150390,0
0.7680656433105468,0.3998348236083984,0
0.7678911209106445,0.3925117492675781,0
0.7778680801391601,0.4017208099365234,0
0.7762527465820312,0.4017208099365234,0
0.7798393249511718,0.3992385864257812,0
0.7798393249511718,0.4004407882690429,0
0.7708282470703125,0.3957824707031250,0
0.7727096557617187,0.3931245803833008,0
0.7715045928955078,0.4126607894897461,0
0.7903787612915039,0.3953990936279297,0
0.7687654495239258,0.4045228958129883,0
0.7795852661132813,0.3973566055297851,0
0.7828411102294922,0.4029350280761719,0
0.7815771102905273,0.3914400100708008,0
0.7748611450195312,0.3946140289306641,0
0.7671340942382813,0.4036153793334961,0
0.7719732284545898,0.3953063964843750,0
0.7801757812500000,0.4012109756469727,0
0.7739879608154296,0.3980003356933594,0
0.7842641830444336,0.3917535781860351,0
0.7504909515380859,0.3901571273803711,0
0.7625473022460937,0.3761644363403320,0
0.7399972915649414,0.3714443206787109,0
0.7360250473022460,0.3513107299804688,0
0.7192268371582031,0.3492113113403320,0
0.7043272018432617,0.3497892379760742,0
0.7113653182983398,0.3337080001831055,0
0.6915761947631835,0.3348587036132812,0
0.6944704055786133,0.3245018005371094,0
0.6855720520019531,0.3245018005371094,0
0.6936658859252930,0.3340215682983398,0
0.6936658859252930,0.3353954315185547,0
0.6995641708374023,0.3385471343994140,0
0.7022672653198242,0.3301511764526367,0
0.7014112472534180,0.3526187896728515,0
0.7103467941284179,0.3453208923339844,0
0.7268806457519531,0.3460418701171875,0
0.7160327911376952,0.3535657882690429,0
0.7331897735595703,0.3677043914794922,0
0.7302824020385742,0.3677043914794922,0
0.7452209472656249,0.3729887008666992,0
0.7452209472656249,0.3759996414184570,0
0.7406055450439453,0.3754863739013672,0
0.7515197753906250,0.3691932678222656,0
0.7446344375610351,0.3901308059692383,0
0.7546737670898437,0.3751865386962890,0
0.7486249923706054,0.3834897994995117,0
0.7482124328613281,0.3766960144042968,0
0.7589584350585937,0.3866638183593750,0
0.7574300765991211,0.3864006042480468,0
0.7617919921874999,0.3774616241455078,0
0.7491720199584960,0.3865413665771484,0
0.7628614425659179,0.3823167800903320,0
0.7557209014892577,0.3886402130126953,0
0.7550004959106446,0.3822435379028320,0
0.7645013809204101,0.3822435379028320,0
0.7517475128173828,0.3912689208984375,0
0.7564722061157226,0.3805538177490234,0
0.7526996612548827,0.3897537231445312,0
0.7653831481933594,0.3847543716430664,0
0.7583496093750000,0.3907745361328125,0
0.7569402694702149,0.3837633132934570,0
0.7659507751464844,0.3837633132934570,0
0.7632762908935546,0.3914434432983399,0
0.7771596908569336,0.3846353530883789,0
0.7530584335327148,0.3903539657592773,0
0.7649236679077148,0.3815288543701172,0
0.7588285446166992,0.3822326660156250,0
0.7580812454223632,0.3918811798095703,0
0.7758298873901367,0.3920436859130859,0
0.7666442871093749,0.3931709289550781,0
0.7585790634155273,0.3896312713623047,0
0.7678848266601562,0.3917650222778320,0
0.7589269638061523,0.3871822357177734,0
0.7680513381958007,0.3871822357177734,0
0.7669635772705078,0.3940841674804688,0
0.7608598709106446,0.3940841674804688,0
0.7695024490356445,0.3945035934448242,0
0.7630605697631836,0.3945035934448242,0
0.7672216415405273,0.3881818771362305,0
0.7815685272216797,0.3881818771362305,0
0.7709478378295899,0.3943782806396484,0
0.7579456329345703,0.3943782806396484,0
0.7620157241821289,0.3897909164428711,0
0.7711841583251953,0.3897909164428711,0
0.7701959609985352,0.3965875625610352,0
0.7641414642333985,0.3965875625610352,0
0.7726718902587890,0.3970333099365234,0
0.7661533355712891,0.3970333099365234,0
0.7700883865356445,0.3905261993408203,0
0.7845628738403320,0.3905261993408203,0
0.7738592147827148,0.3966047286987305,0
0.7608009338378906,0.3966047286987305,0
0.7648698806762695,0.3920202255249023,0
0.7739336013793945,0.3920202255249023,0
0.7728120803833007,0.3987098693847656,0
0.7667530059814452,0.3987098693847656,0
0.7752256393432617,0.3990411758422852,0
0.7686887741088867,0.3990411758422852,0
0.7727170944213867,0.3924224853515625,0
0.7872407913208007,0.3924224853515625,0
0.7762401580810546,0.3985633850097656,0
0.7634141921997070,0.3985633850097656,0
0.7674018859863281,0.3939594268798828,0
0.7764118194580077,0.3939594268798828,0
0.7754327774047851,0.4005849838256836,0
0.7692764282226562,0.4005849838256836,0
0.7775636672973633,0.4007583618164062,0
0.7708940505981445,0.4007583618164062,0
0.7745784759521485,0.3937191009521484,0
0.7888624191284179,0.3937191009521484,0
0.7773468017578125,0.3989959716796875,0
0.7634113311767577,0.3989959716796875,0
0.7662855148315429,0.3924270629882812,0
0.7734014511108398,0.3924270629882812,0
0.7700237274169922,0.3949007034301757,0
0.7604467391967773,0.3949007034301757,0
0.7643234252929687,0.3879049301147461,0
0.7514940261840820,0.3879049301147461,0
0.7472608566284179,0.3674652099609375,0
0.7516868591308593,0.3674652099609375,0
0.7301605224609374,0.3566677093505859,0
0.7059516906738281,0.3566677093505859,0
0.7000728607177734,0.3364110946655273,0
0.6999950408935547,0.3364110946655273,0
0.6923120498657226,0.3321487426757813,0
0.6809984207153320,0.3321487426757813,0
0.6856658935546874,0.3269170761108398,0
0.6766622543334960,0.3269170761108398,0
0.6793138504028320,0.3179855346679688,0
0.6938913345336913,0.3179855346679688,0
0.6835487365722656,0.3251804351806640,0
0.6721532821655273,0.3251804351806640,0
0.6783514022827148,0.3240211486816406,0
0.6901508331298828,0.3240211486816406,0
0.6928436279296875,0.3357507705688477,0
0.6911350250244140,0.3357507705688477,0
0.7037195205688477,0.3432203292846679,0
0.7023330688476562,0.3432203292846679,0
0.7112171173095703,0.3445976257324219,0
0.7315435409545898,0.3445976257324219,0
0.7254346847534180,0.3590011596679688,0
0.7173889160156249,0.3590011596679688,0
0.7253448486328125,0.3610897064208984,0
0.7374526977539062,0.3610897064208984,0
0.7392351150512695,0.3714797973632812,0
0.7353446960449218,0.3714797973632812,0
0.7450292587280273,0.3747591018676757,0
0.7399818420410156,0.3747591018676757,0
0.7447208404541016,0.3698764801025390,0
0.7608753204345703,0.3698764801025390,0
0.7508422851562500,0.3778524398803711,0
0.7388952255249023,0.3778524398803711,0
0.7439426422119141,0.3751682281494140,0
0.7536277770996094,0.3751682281494140,0
0.7537130355834961,0.3826229095458984,0
0.7485586166381836,0.3826229095458984,0
0.7569820404052734,0.3840740203857422,0
0.7509515762329101,0.3840740203857422,0
0.7548282623291015,0.3776950836181641,0
0.7701896667480469,0.3776950836181641,0
0.7592708587646484,0.3844333648681640,0
0.7466217041015625,0.3844333648681640,0
0.7509578704833985,0.3805904388427734,0
0.7598905563354492,0.3805904388427734,0
0.7594871520996094,0.3869779586791992,0
0.7537651062011719,0.3869779586791992,0
0.7613897323608398,0.3874357223510742,0
0.7546382904052734,0.3874357223510742,0
0.7579627990722656,0.3800342559814453,0
0.7728824615478516,0.3800342559814453,0
0.7615007400512696,0.3860292434692383,0
0.7482627868652344,0.3860292434692383,0
0.7521062850952148,0.3816352844238281,0
0.7606933593749999,0.3816352844238281,0
0.7600227355957031,0.3873361587524414,0
0.7539024353027344,0.3873361587524414,0
0.7613359451293945,0.3873996734619141,0
0.7542989730834960,0.3873996734619141,0
0.7574529647827148,0.3797899246215820,0
0.7724287033081054,0.3797899246215820,0
0.7609966278076171,0.3859376907348633,0
0.7480522155761719,0.3859376907348633,0
0.7522373199462891,0.3819740295410156,0
0.7611316680908203,0.3819740295410156,0
0.7608192443847656,0.3881383895874023,0
0.7553403854370117,0.3881383895874023,0
0.7629575729370117,0.3890127182006836,0
0.7563726425170898,0.3890127182006836,0
0.7598573684692382,0.3820238113403320,0
0.7752880096435547,0.3820238113403320,0
0.7641689300537109,0.3886407852172851,0
0.7514053344726562,0.3886407852172851,0
0.7558130264282227,0.3850656509399414,0
0.7648075103759765,0.3850656509399414,0
0.7646141052246094,0.3914091110229492,0
0.7590820312500000,0.3914091110229492,0
0.7668359756469726,0.3922782897949219,0
0.7602230072021484,0.3922782897949219,0
0.7636178970336914,0.3851840972900391,0
0.7791206359863281,0.3851840972900391,0
0.7679449081420898,0.3917026519775391,0
0.7551177978515625,0.3917026519775391,0
0.7594734191894531,0.3882230758666992,0
0.7683580398559570,0.3882230758666992,0
0.7682624816894531,0.3944000244140625,0
0.7627584457397460,0.3944000244140625,0
0.7702182769775391,0.3951519012451172,0
0.7635160446166992,0.3951519012451172,0
0.7667421340942383,0.3878419876098633,0
0.7822345733642578,0.3878419876098633,0
0.7709798812866211,0.3942604064941406,0
0.7581510543823242,0.3942604064941406,0
0.7624757766723632,0.3906829833984375,0
0.7713283538818360,0.3906829833984375,0
0.7711847305297851,0.3965904235839844,0
0.7656869888305664,0.3965904235839844,0
0.7730083465576172,0.3974596023559570,0
0.7661865234374999,0.3974596023559570,0
0.7693387985229492,0.3899328231811524,0
0.7850790023803711,0.3899328231811524,0
0.7735221862792968,0.3963661193847656,0
0.7606452941894531,0.3963661193847656,0
0.7651405334472656,0.3929374694824219,0
0.7739519119262696,0.3929374694824219,0
0.7737567901611327,0.3987676620483399,0
0.7683156967163086,0.3987676620483399,0
0.7755701065063476,0.3995012283325195,0
0.7686882019042969,0.3995012283325195,0
0.7718296051025391,0.3919212341308594,0
0.7874393463134766,0.3919212341308594,0
0.7758670806884765,0.3980890274047851,0
0.7627721786499023,0.3980890274047851,0
0.7687002182006836,0.3986085891723632,0
0.7737979888916016,0.3983276367187500,0
0.7723262786865234,0.3960685729980469,0
0.7627189636230468,0.3960685729980469,0
0.7623607635498046,0.3826429367065430,0
0.7732807159423828,0.3826429367065430,0
0.7558570861816406,0.3789304733276367,0
0.7347295761108398,0.3789304733276367,0
0.7302337646484375,0.3608436584472656,0
0.7288347244262695,0.3608436584472656,0
0.7192440032958984,0.3513107299804688,0
0.7044982910156250,0.3513107299804688,0
0.7040061950683594,0.3400611877441406,0
0.6907436370849609,0.3400611877441406,0
0.6895637512207031,0.3254310607910156,0
0.7024492263793946,0.3254310607910156,0
0.6896083831787109,0.3293352127075195,0
0.6764179229736328,0.3293352127075195,0
0.6813285827636718,0.3268678665161133,0
0.6915601730346680,0.3268678665161133,0
0.6937820434570312,0.3357873916625976,0
0.6916837692260742,0.3357873916625976,0
0.7023662567138672,0.3426498413085937,0
0.7000333786010742,0.3426498413085937,0
0.7079704284667968,0.3427448272705078,0
0.7294040679931640,0.3427448272705078,0
0.7232442855834961,0.3576747894287109,0
0.7157489776611328,0.3576747894287109,0
0.7244173049926758,0.3619010925292969,0
0.7306915283203125,0.3619010925292969,0
0.7395177841186523,0.3718008041381836,0
0.7351146697998047,0.3718008041381836,0
0.7451786041259766,0.3755985260009765,0
0.7397455215454102,0.3755985260009765,0
0.7439844131469726,0.3700017929077148,0
0.7610876083374023,0.3700017929077148,0
0.7506259918212891,0.3782129287719727,0
0.7387750625610351,0.3782129287719727,0
0.7441743850708008,0.3767360687255859,0
0.7476333618164063,0.3767360687255859,0
0.7544918060302734,0.3831962585449218,0
0.7499416351318359,0.3831962585449218,0
0.7573539733886718,0.3851200103759765,0
0.7507781982421875,0.3851200103759765,0
0.7542543411254883,0.3779811859130859,0
0.7510345458984374,0.3779811859130859,0
0.7592668533325195,0.3849506378173828,0
0.7467098236083984,0.3849506378173828,0
0.7514373779296875,0.3824243545532227,0
0.7602516174316406,0.3824243545532227,0
0.7604192733764649,0.3877956390380859,0
0.7552345275878906,0.3877956390380859,0
0.7620500564575196,0.3887901306152344,0
0.7548030853271485,0.3887901306152344,0
0.7576452255249023,0.3806722640991211,0
0.7736045837402343,0.3806722640991211,0
0.7619007110595702,0.3869968414306640,0
0.7488779067993164,0.3869968414306640,0
0.7532518386840820,0.3838777542114258,0
0.7616094589233399,0.3838777542114258,0
0.7615522384643555,0.3887369155883789,0
0.7561723709106445,0.3887369155883789,0
0.7627733230590820,0.3894218444824218,0
0.7554164886474609,0.3894218444824218,0
0.7580411911010742,0.3811655044555664,0
0.7740085601806640,0.3811655044555664,0
0.7623939514160156,0.3874889373779297,0
0.7494752883911132,0.3874889373779297,0
0.7539539337158203,0.3847166061401367,0
0.7625135421752930,0.3847166061401367,0
0.7625684738159180,0.3897239685058594,0
0.7575708389282226,0.3897239685058594,0
0.7642141342163086,0.3909164428710937,0
0.7569597244262695,0.3909164428710937,0
0.7598161697387695,0.3829336166381836,0
0.7761154174804688,0.3829336166381836,0
0.7647211074829101,0.3895093917846680,0
0.7519180297851562,0.3895093917846680,0
0.7566301345825195,0.3870534896850586,0
0.7652761459350585,0.3870534896850586,0
0.7655702590942383,0.3922050476074219,0
0.7607843399047851,0.3922050476074219,0
0.7674013137817383,0.3936120986938477,0
0.7602270126342773,0.3936120986938477,0
0.7630582809448242,0.3855646133422851,0
0.7793317794799804,0.3855646133422851,0
0.7678333282470703,0.3921609878540039,0
0.7552288055419921,0.3921609878540039,0
0.7599037170410156,0.3899185180664063,0
0.7685543060302734,0.3899185180664063,0
0.7688758850097656,0.3948028564453125,0
0.7640647888183594,0.3948028564453125,0
0.7706365585327148,0.3961246490478516,0
0.7632968902587890,0.3961246490478516,0
0.7659868240356446,0.3879684448242187,0
0.7823461532592774,0.3879684448242187,0
0.7707721710205078,0.3945304870605469,0
0.7579507827758789,0.3945304870605469,0
0.7712282180786133,0.3922822952270508,0
0.7655221939086914,0.3922822952270508,0
0.7714553833007812,0.3968616485595703,0
0.7665739059448242,0.3968616485595703,0
0.7731061935424804,0.3982109069824218,0
0.7655427932739257,0.3982109069824218,0
0.7682218551635742,0.3896501541137695,0
0.7848890304565429,0.3896501541137695,0
0.7730358123779296,0.3963821411132812,0
0.7601154327392577,0.3963821411132812,0
0.7648469924926757,0.3941253662109375,0
0.7733528137207031,0.3941253662109375,0
0.7737075805664062,0.3986577987670898,0
0.7688930511474609,0.3986577987670898,0
0.7754138946533203,0.4001552581787109,0
0.7676296234130859,0.4001552581787109,0
0.7702039718627930,0.3914445877075195,0
0.7870342254638671,0.3914445877075195,0
0.7750888824462890,0.3980312347412109,0
0.7619997024536133,0.3980312347412109,0
0.7666328430175781,0.3955924987792969,0
0.7749263763427734,0.3955924987792969,0
0.7748022079467773,0.3992826461791992,0
0.7693490982055664,0.3992826461791992,0
0.7747959136962891,0.3991601943969726,0
0.7655696868896484,0.3991601943969726,0
0.7661653518676758,0.3874488830566406,0
0.7802450180053710,0.3874488830566406,0
0.7650512695312500,0.3886516571044922,0
0.7478302001953124,0.3886516571044922,0
0.7472648620605469,0.3773426055908203,0
0.7485660552978516,0.3773426055908203,0
0.7411422729492188,0.3688190460205078,0
0.7279415130615234,0.3688190460205078,0
0.7261253356933594,0.3572999954223633,0
0.7103302001953125,0.3572999954223633,0
0.7062664031982422,0.3380395889282227,0
0.7174701690673828,0.3380395889282227,0
0.7021677017211914,0.3388360977172851,0
0.6871381759643554,0.3388360977172851,0
0.6911195755004883,0.3353153228759765,0
0.6998199462890625,0.3353153228759765,0
0.7015445709228515,0.3414356231689453,0
0.6994234085083008,0.3414356231689453,0
0.7087537765502929,0.3479839324951172,0
0.7050968170166015,0.3479839324951172,0
0.7121000289916992,0.3467056274414063,0
0.7340950012207031,0.3467056274414063,0
0.7276027679443359,0.3617111206054687,0
0.7201509475708008,0.3617111206054687,0
0.7290521621704101,0.3667407989501953,0
0.7408561706542969,0.3667407989501953,0
0.7437400817871094,0.3749507904052734,0
0.7412956237792968,0.3749507904052734,0
0.7490020751953125,0.3793476104736328,0
0.7426883697509765,0.3793476104736328,0
0.7463407516479492,0.3727066040039063,0
0.7642656326293945,0.3727066040039063,0
0.7535430908203125,0.3811254501342773,0
0.7419176101684570,0.3811254501342773,0
0.7476144790649414,0.3808078765869141,0
0.7567617416381835,0.3808078765869141,0
0.7579542160034179,0.3859914779663086,0
0.7541416168212890,0.3859914779663086,0
0.7608684539794922,0.3885910034179688,0
0.7535333633422852,0.3885910034179688,0
0.7563325881958007,0.3805343627929688,0
0.7735010147094726,0.3805343627929688,0
0.7621267318725585,0.3877956390380859,0
0.7497877120971680,0.3877956390380859,0
0.7548036575317383,0.3864933013916015,0
0.7632408142089844,0.3864933013916015,0
0.7639051437377929,0.3905141830444336,0
0.7595117568969726,0.3905141830444336,0
0.7656063079833985,0.3923131942749024,0
0.7577276229858398,0.3923131942749024,0
0.7597669601440430,0.3833736419677734,0
0.7764902114868164,0.3833736419677734,0
0.7647005081176758,0.3898515701293945,0
0.7519174575805664,0.3898515701293945,0
0.7566272735595703,0.3878952026367187,0
0.7645408630371093,0.3878952026367187,0
0.7648595809936524,0.3912111282348633,0
0.7602052688598633,0.3912111282348633,0
0.7660366058349609,0.3925918579101562,0
0.7578540802001953,0.3925918579101562,0
0.7596994400024414,0.3833507537841797,0
0.7764329910278320,0.3833507537841797,0
0.7645139694213867,0.3897743225097656,0
0.7518138885498047,0.3897743225097656,0
0.7565340042114258,0.3879369735717773,0
0.7645448684692383,0.3879369735717773,0
0.7651714324951172,0.3915138244628906,0
0.7607814788818359,0.3915138244628906,0
0.7667547225952148,0.3932441711425781,0
0.7587495803833008,0.3932441711425781,0
0.7607746124267578,0.3844791412353515,0
0.7778440475463867,0.3844791412353515,0
0.7662168502807617,0.3913518905639649,0
0.7537485122680664,0.3913518905639649,0
0.7587427139282227,0.3899602890014648,0
0.7669521331787109,0.3899602890014648,0
0.7676616668701172,0.3938364028930664,0
0.7635744094848632,0.3938364028930664,0
0.7696002960205078,0.3957521438598633,0
0.7615768432617187,0.3957521438598633,0
0.7637947082519531,0.3869670867919922,0
0.7808876037597656,0.3869670867919922,0
0.7692752838134765,0.3939302444458008,0
0.7568447113037109,0.3939302444458008,0
0.7618846893310547,0.3926450729370117,0
0.7700414657592773,0.3926450729370117,0
0.7707630157470703,0.3964450836181641,0
0.7667524337768554,0.3964450836181641,0
0.7727050781250000,0.3983259201049805,0
0.7646787643432617,0.3983259201049805,0
0.7668502807617187,0.3893543243408203,0
0.7839202880859375,0.3893543243408203,0
0.7721523284912110,0.3963335037231445,0
0.7596754074096680,0.3963335037231445,0
0.7646936416625977,0.3950265884399414,0
0.7728023529052734,0.3950265884399414,0
0.7735811233520508,0.3987562179565430,0
0.7694686889648438,0.3987562179565430,0
0.7755014419555664,0.4005306243896484,0
0.7673395156860351,0.4005306243896484,0
0.7694223403930663,0.3914937973022461,0
0.7864568710327148,0.3914937973022461,0
0.7747644424438477,0.3984523773193359,0
0.7622520446777343,0.3984523773193359,0
0.7672096252441406,0.3971242904663086,0
0.7752159118652343,0.3971242904663086,0
0.7759145736694336,0.4006164550781250,0
0.7716316223144531,0.4006164550781250,0
0.7774726867675781,0.4021099090576172,0
0.7688959121704101,0.4021099090576172,0
0.7677961349487304,0.4009489059448242,0
0.7677961349487304,0.3939525604248047,0
0.7728178024291992,0.3868228912353516,0
0.7766658782958984,0.3868228912353516,0
0.7648687362670898,0.3950105667114258,0
0.7543865203857422,0.3950105667114258,0
0.7588108062744140,0.3823511123657227,0
0.7714141845703125,0.3823511123657227,0
0.7570678710937500,0.3856103897094726,0
0.7396224975585938,0.3856103897094726,0
0.7401472091674804,0.3695577621459961,0
0.7352342605590820,0.3695577621459961,0
0.7367872238159180,0.3559593200683593,0
0.7373239517211914,0.3559593200683593,0
0.7238216400146484,0.3613283157348633,0
0.7129566192626953,0.3613283157348633,0
0.7185510635375977,0.3505422592163086,0
0.7341104507446289,0.3505422592163086,0
0.7244029998779297,0.3615159988403320,0
0.7138343811035156,0.3615159988403320,0
0.7219642639160156,0.3582635879516601,0
0.7257127761840820,0.3582635879516601,0
0.7361618041992187,0.3590171813964844,0
0.7457256317138672,0.3590171813964844,0
0.7395647048950195,0.3765466690063476,0
0.7348514556884765,0.3765466690063476,0
0.7444084167480468,0.3726688385009765,0
0.7626823425292969,0.3726688385009765,0
0.7539768218994141,0.3855691909790039,0
0.7431547164916992,0.3855691909790039,0
0.7500904083251952,0.3802837371826172,0
0.7582901000976562,0.3752082824707031,0
0.7527288436889649,0.3859685897827148,0
0.7568601608276367,0.3859685897827148,0
0.7576921463012695,0.4020538330078125,0
0.7746334075927734,0.3828975677490234,0
0.7531860351562499,0.3940629959106445,0
0.7610601425170899,0.3847967147827148,0
0.7669080734252930,0.3924917221069336,0
0.7673618316650390,0.3812232971191406,0
0.7638061523437499,0.3873682022094727,0
0.7657459259033202,0.3954980850219726,0
0.7635326385498047,0.3874214172363281,0
0.7696969985961913,0.3977783203125000,0
0.7632722854614258,0.3974910736083984,0
0.7635005950927735,0.3905639648437500,0
0.7702411651611328,0.3848773956298828,0
0.7660114288330078,0.3965766906738281,0
0.7711046218872070,0.3965904235839844,0
0.7722736358642578,0.3982715606689453,0
0.7700855255126953,0.3855360031127930,0
0.7821630477905274,0.3882951736450195,0
0.7700059890747070,0.3948343276977539,0
0.7697319030761719,0.3845472335815430,0
0.7641998291015625,0.3879999160766601,0
0.7634210586547852,0.3907997131347656,0
0.7579484939575195,0.4059757232666015,0
0.7707241058349609,0.3943908691406250,0
0.7683231353759765,0.3971632003784180,0
0.7659748077392577,0.3895317077636719,0
0.7719995498657226,0.3997392654418945,0
0.7656309127807617,0.3995624542236328,0
0.7659553527832031,0.3927337646484375,0
0.7790616989135742,0.3872434616088867,0
0.7656412124633789,0.3965669631958008,0
0.7745864868164062,0.3992540359497070,0
0.7684993743896484,0.3916511535644531,0
0.7745801925659179,0.3893806457519531,0
0.7873380661010742,0.3923641204833984,0
0.7683746337890625,0.3949825286865234,0
0.7756771087646485,0.3892770767211914,0
0.7682304382324219,0.3987236022949219,0
0.7771545410156250,0.3894641876220703,0
0.7871315002441406,0.3936618804931640,0
0.7786828994750976,0.4039649963378906,0
0.7722970962524414,0.3942100524902344,0
0.7706428527832031,0.4035152435302734,0
0.7777376174926758,0.3893331527709961,0
0.7836387634277343,0.3907876968383789,0
0.7731777191162109,0.4023845672607422,0
0.7711589813232421,0.3934238433837891,0
0.7777650833129882,0.3999475479125976,0
0.7686756134033202,0.3906555175781250,0
0.7840633392333984,0.3906555175781250,0
0.7548191070556640,0.3943187713623047,0
0.7676937103271484,0.3818201065063476,0
0.7579301834106446,0.3889080047607422,0
0.7600090026855468,0.3741434097290039,0
0.7547309875488281,0.3799844741821289,0
0.7429887771606445,0.3831321716308594,0
0.7583936691284180,0.3692161560058594,0
0.7395160675048827,0.3708417892456055,0
0.7453960418701172,0.3644823074340820,0
0.7383413314819336,0.3644823074340820,0
0.7504016876220703,0.3788183212280273,0
0.7504016876220703,0.3799901962280273,0
0.7564853668212891,0.3870512008666992,0
0.7570358276367187,0.3759933471679687,0
0.7545318603515625,0.3911401748657227,0
0.7559057235717773,0.3845060348510742,0
0.7721637725830078,0.3808776855468750,0
0.7581184387207031,0.3912815093994140,0
0.7688764572143555,0.3946174621582031,0
0.7634233474731446,0.4064117431640625,0
0.7636974334716796,0.3989221572875977,0
0.7665573120117187,0.3900232315063477,0
0.7656343460083007,0.3997552871704101,0
0.7739662170410156,0.3881669998168945,0
0.7666385650634765,0.3881669998168945,0
0.7761297225952148,0.4007835388183594,0
0.7761297225952148,0.4003091812133789,0
0.7778697967529297,0.4038036346435547,0
0.7763345718383788,0.3911338806152344,0
0.7704551696777343,0.3969640731811523,0
0.7703241348266602,0.3969640731811523,0
0.7843952178955078,0.3913850784301758,0
0.7702262878417968,0.4007904052734375,0
0.7789037704467773,0.4023633956909179,0
0.7724384307861328,0.4134927749633789,0
0.7779699325561523,0.3923881530761719,0
0.7653213500976562,0.4046430587768555,0
0.7708299636840820,0.3976987838745117,0
0.7777027130126953,0.4019170761108398,0
0.7702663421630859,0.4008504867553711,0
0.7737590789794921,0.3955261230468750,0
0.7719491958618164,0.4130281448364257,0
0.7875944137573242,0.3946443557739258,0
0.7645225524902344,0.4041440963745117,0
0.7721912384033203,0.4043758392333984,0
0.7772867202758789,0.3911373138427734,0
0.7648229598999023,0.4015977859497070,0
0.7774503707885742,0.4009946823120117,0
0.7740097045898438,0.4031724929809570,0
0.7724990844726562,0.3951656341552734,0
0.7797723770141601,0.3951656341552734,0
0.7730152130126953,0.4049543380737304,0
0.7730152130126953,0.3956079483032227,0
0.7786737442016601,0.4029642105102539,0
0.7795194625854492,0.3922657012939453,0
0.7761337280273437,0.4047168731689453,0
0.7677326202392578,0.4047168731689453,0
0.7902076721191406,0.3969137191772461,0
0.7817928314208984,0.4070978164672852,0
0.7749761581420899,0.3974504470825195,0
0.7744571685791015,0.4067533493041992,0
0.7818014144897460,0.3941087722778320,0
0.7886873245239258,0.3953481674194336,0
0.7785192489624023,0.4065181732177734,0
0.7767019271850586,0.3987573623657226,0
0.7839288711547852,0.4053491592407226,0
0.7770074844360352,0.4090101242065430,0
0.7953672409057617,0.3991779327392578,0
0.7705633163452148,0.4064815521240234,0
0.7838109970092774,0.3969800949096680,0
0.7803634643554688,0.4078536987304687,0
0.7845273971557617,0.4078536987304687,0
0.7843706130981445,0.3994239807128906,0
0.7843706130981445,0.4088727951049805,0
0.7755569458007813,0.3977251052856445,0
0.7740182876586914,0.4059345245361328,0
0.7780586242675781,0.3918605804443359,0
0.7682910919189453,0.3918605804443359,0
0.7726135253906250,0.3992042541503906,0
0.7726135253906250,0.3962373733520508,0
0.7680158615112305,0.3949802398681641,0
0.7639806747436523,0.3924413681030273,0
0.7532861709594726,0.3821685791015625,0
0.7577899932861328,0.3821685791015625,0
0.7493717193603515,0.3753049850463867,0
0.7493717193603515,0.3843412399291992,0
0.7592210769653320,0.3865882873535156,0
0.7541776657104492,0.3992986679077148,0
0.7633724212646484,0.3925151824951172,0
0.7795703887939452,0.3858924865722656,0
0.7610115051269531,0.3900661468505859,0
0.7712871551513671,0.3877573013305664,0
0.7710994720458985,0.3932567596435547,0
0.7631652832031249,0.4004756927490234,0
0.7865198135375976,0.3940916061401367,0
0.7781398773193359,0.4049022674560547,0
0.7721746444702148,0.3962511062622070,0
0.7797122955322265,0.4044353485107422,0
0.7679271697998047,0.4044353485107422,0
0.7821744918823242,0.4051322937011719,0
0.7795892715454101,0.3999853134155273,0
0.7795892715454101,0.4068586349487305,0
0.7775739669799805,0.4068586349487305,0
0.7846487045288085,0.4099336624145508,0
0.7763065338134766,0.4099336624145508,0
0.7776975631713867,0.4005500793457031,0
0.7965345382690430,0.4005500793457031,0
0.7845216751098633,0.4080631256103516,0
0.7722101211547852,0.4080631256103516,0
0.7778354644775390,0.4081661224365234,0
0.7855504989624024,0.4081661224365234,0
0.7867355346679688,0.4091846466064453,0
0.7833869934082031,0.4091846466064453,0
0.7867841720581055,0.4115592956542969,0
0.7780775070190430,0.4115592956542969,0
0.7790605545043945,0.4016916275024414,0
0.7975570678710937,0.4016916275024414,0
0.7852815628051758,0.4086753845214844,0
0.7726804733276367,0.4086753845214844,0
0.7781587600708008,0.4084671020507812,0
0.7855796813964844,0.4084671020507812,0
0.7866062164306641,0.4091880798339844,0
0.7798284530639649,0.4091880798339844,0
0.7861816406250000,0.4111701965332031,0
0.7773193359375000,0.4111701965332031,0
0.7780735015869140,0.4011068344116211,0
0.7966369628906250,0.4011068344116211,0
0.7845233917236328,0.4081174850463867,0
0.7720510482788085,0.4081174850463867,0
0.7776288986206055,0.4081947326660156,0
0.7851911544799804,0.4081947326660156,0
0.7863418579101562,0.4091342926025390,0
0.7831386566162110,0.4091342926025390,0
0.7861438751220703,0.4111913681030273,0
0.7774629592895508,0.4111913681030273,0
0.7783819198608398,0.4014621734619140,0
0.7971708297729492,0.4014621734619140,0
0.7854612350463867,0.4089145660400391,0
0.7730775833129883,0.4089145660400391,0
0.7787372589111328,0.4092161178588867,0
0.7865329742431640,0.4092161178588867,0
0.7877540588378906,0.4103530883789062,0
0.7846887588500976,0.4103530883789062,0
0.7875246047973633,0.4125904083251953,0
0.7791320800781250,0.4125904083251953,0
0.7799531936645507,0.4029647827148438,0
0.7989206314086914,0.4029647827148438,0
0.7872762680053711,0.4104017257690429,0
0.7750122070312500,0.4104017257690429,0
0.7806913375854492,0.4109310150146484,0
0.7884412765502929,0.4109310150146484,0
0.7898008346557617,0.4119094848632812,0
0.7867927551269531,0.4119094848632812,0
0.7895587921142578,0.4143064498901367,0
0.7810672760009766,0.4143064498901367,0
0.7818609237670898,0.4046407699584961,0
0.8007768630981446,0.4046407699584961,0
0.7892377853393554,0.4120164871215820,0
0.7768478393554688,0.4120164871215820,0
0.7823461532592774,0.4123003005981445,0
0.7898466110229492,0.4123003005981445,0
0.7907913208007812,0.4125062942504883,0
0.7872676849365234,0.4125062942504883,0
0.7890501022338867,0.4136020660400391,0
0.7795194625854492,0.4136020660400391,0
0.7789901733398438,0.4019348144531250,0
0.7963634490966797,0.4019348144531250,0
0.7832284927368164,0.4063974380493164,0
0.7819936752319335,0.4063974380493164,0
0.7721958160400391,0.4034133911132812,0
0.7776437759399414,0.4034133911132812,0
0.7765314102172851,0.4001277923583984,0
0.7712133407592773,0.4001277923583984,0
0.7712516784667969,0.3986967086791992,0
0.7606470108032226,0.3986967086791992,0
0.7596061706542968,0.3859840393066406,0
0.7771408081054687,0.3859840393066406,0
0.7652521133422852,0.3920562744140625,0
0.7528467178344727,0.3920562744140625,0
0.7591072082519531,0.3936578750610352,0
0.7680358886718750,0.3936578750610352,0
0.7707853317260742,0.3967649459838867,0
0.7697788238525390,0.3967649459838867,0
0.7734992980957031,0.4021453857421875,0
0.7667249679565430,0.4021453857421875,0
0.7688203811645508,0.3948171615600586,0
0.7891736984252929,0.3948171615600586,0
0.7792533874511719,0.4042327880859375,0
0.7680553436279297,0.4042327880859375,0
0.7745298385620117,0.4065793991088867,0
0.7832324981689452,0.4065793991088867,0
0.7851837158203124,0.4083875656127929,0
0.7831981658935546,0.4083875656127929,0
0.7857433319091797,0.4119226455688477,0
0.7779653549194335,0.4119226455688477,0
0.7790971755981445,0.4030448913574219,0
0.7986030578613281,0.4030448913574219,0
0.7879222869873047,0.4111078262329101,0
0.7761005401611328,0.4111078262329101,0
0.7819444656372070,0.4125200271606445,0
0.7900714874267578,0.4125200271606445,0
0.7915729522705078,0.4133691787719727,0
0.7891176223754882,0.4133691787719727,0
0.7911260604858398,0.4161449432373047,0
0.7828788757324219,0.4161449432373047,0
0.7834402084350586,0.4065639495849609,0
0.8025615692138671,0.4065639495849609,0
0.7915100097656250,0.4140003204345703,0
0.7792333602905274,0.4140003204345703,0
0.7848638534545899,0.4148403167724609,0
0.7926578521728516,0.4148403167724609,0
0.7938583374023437,0.4150646209716797,0
0.7910242080688477,0.4150646209716797,0
0.7925874710083007,0.4173448562622070,0
0.7840776443481445,0.4173448562622070,0
0.7844083786010742,0.4071796417236328,0
0.8031835556030273,0.4071796417236328,0
0.7918224334716797,0.4142160415649414,0
0.7793088912963867,0.4142160415649414,0
0.7922458648681641,0.4147481918334961,0
0.7914304733276367,0.4151281356811523,0
0.7932741165161132,0.4068763732910156,0
0.7915466308593749,0.4122665405273437,0
0.7830310821533203,0.4153615951538086,0
0.7832439422607421,0.4165203094482422,0
0.7832439422607421,0.4063716888427734,0
0.7908599853515624,0.4082445144653320,0
0.7915208816528320,0.4045824050903320,0
0.7999654769897461,0.4045824050903320,0
0.7908039093017578,0.4146635055541992,0
0.7807033538818359,0.4146635055541992,0
0.7857810974121093,0.4067052841186523,0
0.7995866775512696,0.4067052841186523,0
0.7911254882812500,0.4155675888061524,0
0.7784746170043945,0.4155675888061524,0
0.7856019973754883,0.4088779449462890,0
0.7836736679077149,0.4088779449462890,0
0.7926263809204102,0.4057456970214844,0
0.8013553619384766,0.4057456970214844,0
0.7924186706542968,0.4159366607666016,0
0.7823896408081055,0.4159366607666016,0
0.7875246047973633,0.4082410812377930,0
0.8013221740722656,0.4082410812377930,0
0.7931093215942383,0.4171628952026367,0
0.7805557250976562,0.4171628952026367,0
0.7876871109008788,0.4105573654174804,0
0.7857519149780273,0.4105573654174804,0
0.7947418212890625,0.4075469970703125,0
0.8035303115844726,0.4075469970703125,0
0.7945747375488281,0.4177099227905273,0
0.7844518661499024,0.4177099227905273,0
0.7895570755004883,0.4099634170532226,0
0.8032281875610351,0.4099634170532226,0
0.7949478149414062,0.4186500549316406,0
0.7821813583374023,0.4186500549316406,0
0.7891393661499023,0.4116680145263672,0
0.7868379592895508,0.4116680145263672,0
0.7954267501831055,0.4079475402832031,0
0.8035886764526367,0.4079475402832031,0
0.7938199996948242,0.4167383193969726,0
0.7825372695922851,0.4167383193969726,0
0.7863384246826172,0.4069725036621094,0
0.7984954833984375,0.4069725036621094,0
0.7887382507324219,0.4129079818725586,0
0.7741699218750000,0.4129079818725586,0
0.7792264938354492,0.4029458999633789,0
0.7750024795532227,0.4029458999633789,0
0.7820743560791016,0.3966636657714844,0
0.7887977600097656,0.3966636657714844,0
0.7780632019042969,0.4035037994384765,0
0.7662460327148437,0.4035037994384765,0
0.7701044082641602,0.3939090728759765,0
0.7829704284667969,0.3939090728759765,0
0.7748325347900390,0.4022346496582031,0
0.7626405715942383,0.4022346496582031,0
0.7703762054443359,0.3965892791748047,0
0.7692873001098632,0.3965892791748047,0
0.7796419143676757,0.3959077835083007,0
0.7898780822753906,0.3959077835083007,0
0.7821704864501953,0.4078765869140625,0
0.7731737136840821,0.4078765869140625,0
0.7792413711547851,0.4021865844726563,0
0.7938846588134766,0.4021865844726563,0
0.7868883132934570,0.4124439239501953,0
0.7753377914428711,0.4124439239501953,0
0.7831415176391602,0.4070697784423828,0
0.7816549301147461,0.4070697784423828,0
0.7914876937866211,0.4054710388183594,0
0.8011184692382812,0.4054710388183594,0
0.7925153732299804,0.4160247802734375,0
0.7826717376708984,0.4160247802734375,0
0.7878759384155273,0.4091485977172851,0
0.8018182754516602,0.4091485977172851,0
0.7943532943725585,0.4183061599731445,0
0.7822511672973632,0.4183061599731445,0
0.7894952774047851,0.4120880126953125,0
0.7874490737915039,0.4120880126953125,0
0.7968973159790039,0.4099113464355469,0
0.7893665313720702,0.4099113464355469,0
0.7972103118896484,0.4197950363159180,0
0.7869564056396484,0.4197950363159180,0
0.7918504714965821,0.4122276306152344,0
0.8053258895874024,0.4122276306152344,0
0.7974369049072265,0.4207494735717773,0
0.7896440505981445,0.4207494735717773,0
0.7919878005981446,0.4140026092529297,0
0.7895593643188477,0.4140026092529297,0
0.7987169265747071,0.4114362716674805,0
0.8077125549316406,0.4114362716674805,0
0.7984079360961914,0.4205949783325195,0
0.7877311706542969,0.4205949783325195,0
0.7922716140747070,0.4125612258911133,0
0.8054185867309570,0.4125612258911133,0
0.7974266052246094,0.4206762313842773,0
0.7847425460815429,0.4206762313842773,0
0.7914682388305664,0.4134338378906250,0
0.7887096405029297,0.4134338378906250,0
0.7977424621582031,0.4107170104980469,0
0.8065847396850586,0.4107170104980469,0
0.7971611022949219,0.4195358276367188,0
0.7863452911376952,0.4195358276367188,0
0.7907484054565429,0.4113372802734375,0
0.8037878036499023,0.4113372802734375,0
0.7958484649658203,0.4194173812866211,0
0.7832433700561523,0.4194173812866211,0
0.7901144027709961,0.4123203277587891,0
0.7961494445800781,0.4123203277587891,0
0.7967554092407226,0.4100263595581055,0
0.8057521820068360,0.4100263595581055,0
0.7965431213378906,0.4191020965576172,0
0.7859350204467773,0.4191020965576172,0
0.7905887603759766,0.4113235473632812,0
0.8038141250610351,0.4113235473632812,0
0.7962501525878906,0.4197875976562500,0
0.7839569091796875,0.4197875976562500,0
0.7910024642944335,0.4131368637084961,0
0.7885391235351562,0.4131368637084961,0
0.7978878021240234,0.4110603332519531,0
0.8071615219116210,0.4110603332519531,0
0.7980606079101562,0.4203392028808594,0
0.7875909805297852,0.4203392028808594,0
0.7922922134399414,0.4127254486083984,0
0.8055061340332031,0.4127254486083984,0
0.7980342864990234,0.4211717605590820,0
0.7857851028442383,0.4211717605590820,0
0.7927808761596680,0.4145462036132813,0
0.7902254104614258,0.4145462036132813,0
0.7996381759643555,0.4125612258911133,0
0.8087471008300781,0.4125612258911133,0
0.7995935440063476,0.4212982177734375,0
0.7887239456176758,0.4212982177734375,0
0.7929708480834960,0.4130212783813477,0
0.8053367614746093,0.4130212783813477,0
0.7971485137939452,0.4200473785400390,0
0.7837760925292968,0.4200473785400390,0
0.7896080017089844,0.4113321304321289,0
0.7853118896484375,0.4113321304321289,0
0.7929508209228515,0.4065038681030274,0
0.8000226974487304,0.4065038681030274,0
0.7888177871704102,0.4118408203125000,0
0.7759849548339843,0.4118408203125000,0
0.7783349990844727,0.4002668380737305,0
0.7890403747558593,0.4002668380737305,0
0.7794639587402343,0.4049737930297851,0
0.7653631210327149,0.4049737930297851,0
0.7707464218139648,0.3956800460815429,0
0.7671518325805664,0.3956800460815429,0
0.7761411666870117,0.3931016921997070,0
0.7855075836181641,0.3931016921997070,0
0.7771184921264648,0.4030895233154297,0
0.7677515029907226,0.4030895233154297,0
0.7739089965820313,0.3979597091674805,0
0.7885093688964844,0.3979597091674805,0
0.7827718734741210,0.4090312957763672,0
0.7723348617553710,0.4090312957763672,0
0.7805299758911133,0.4047878265380859,0
0.7793071746826171,0.4047878265380859,0
0.7899644851684570,0.4051792144775391,0
0.8003625869750977,0.4051792144775391,0
0.7920707702636719,0.4155132293701172,0
0.7824811935424805,0.4155132293701172,0
0.7878484725952148,0.4090919494628906,0
0.8014148712158203,0.4090919494628906,0
0.7947664260864258,0.4184640884399414,0
0.7833795547485352,0.4184640884399414,0
0.7908142089843749,0.4126338958740234,0
0.7888532638549804,0.4126338958740234,0
0.7987483978271485,0.4119695663452148,0
0.8085731506347656,0.4119695663452148,0
0.7996822357177734,0.4211975097656250,0
0.7895353317260742,0.4211975097656250,0
0.7944459915161133,0.4141136169433594,0
0.8075174331665039,0.4141136169433594,0
0.8004112243652344,0.4226720809936523,0
0.7885076522827148,0.4226720809936523,0
0.7955326080322266,0.4160625457763672,0
0.7930063247680664,0.4160625457763672,0
0.8024991989135742,0.4147207260131836,0
0.8119834899902344,0.4147207260131836,0
0.8025060653686523,0.4232889175415039,0
0.7919162750244141,0.4232889175415039,0
0.7964727401733398,0.4156150817871094,0
0.8089776992797851,0.4156150817871094,0
0.8016952514648438,0.4235006332397461,0
0.7893230438232421,0.4235006332397461,0
0.7960693359375000,0.4164339065551758,0
0.7931453704833984,0.4164339065551758,0
0.8023750305175781,0.4146068572998047,0
0.8115520477294922,0.4146068572998047,0
0.8018188476562500,0.4226440429687500,0
0.7909532546997070,0.4226440429687500,0
0.7952384948730469,0.4146509170532227,0
0.8075300216674804,0.4146509170532227,0
0.8002269744873046,0.4222887039184570,0
0.7876647949218750,0.4222887039184570,0
0.7943315505981445,0.4151996612548828,0
0.7912668228149414,0.4151996612548828,0
0.8007774353027344,0.4135093688964844,0
0.8099178314208985,0.4135093688964844,0
0.8001548767089843,0.4216072082519531,0
0.7893648147583008,0.4216072082519531,0
0.7939172744750976,0.4137880325317383,0
0.8063747406005859,0.4137880325317383,0
0.7993068695068359,0.4218023300170898,0
0.7868322372436524,0.4218023300170898,0
0.7939292907714843,0.4149793624877929,0
0.7912570953369140,0.4149793624877929,0
0.8008729934692382,0.4137308120727539,0
0.8103590011596680,0.4137308120727539,0
0.8008043289184570,0.4221033096313476,0
0.7902408599853515,0.4221033096313476,0
0.7948837280273438,0.4146709442138672,0
0.8074539184570312,0.4146709442138672,0
0.8006818771362304,0.4229352951049805,0
0.7884447097778320,0.4229352951049805,0
0.7956315994262695,0.4164018630981445,0
0.7930137634277343,0.4164018630981445,0
0.8028150558471679,0.4153038024902344,0
0.8123577117919921,0.4153038024902344,0
0.8026096343994140,0.4237363815307617,0
0.7920192718505860,0.4237363815307617,0
0.7965642929077148,0.4161329269409180,0
0.8089622497558594,0.4161329269409180,0
0.8018989562988281,0.4238834381103516,0
0.7891462326049804,0.4238834381103516,0
0.7957374572753906,0.4162633895874023,0
0.7921686172485352,0.4162633895874023,0
0.8008684158325196,0.4134178161621094,0
0.8089199066162109,0.4134178161621094,0
0.7975942611694335,0.4189762115478515,0
0.7849851608276367,0.4189762115478515,0
0.7873695373535156,0.4078491210937500,0
0.7973213195800781,0.4078491210937500,0
0.7881105422973632,0.4116989135742187,0
0.7730157852172851,0.4116989135742187,0
0.7774967193603516,0.4004940032958984,0
0.7720190048217773,0.4004940032958984,0
0.7792648315429688,0.3949190139770508,0
0.7863527297973633,0.3949190139770508,0
0.7747741699218750,0.4001037597656250,0
0.7629913330078125,0.4001037597656250,0
0.7669509887695313,0.3915721893310547,0
0.7791933059692383,0.3915721893310547,0
0.7732189178466796,0.4008121490478516,0
0.7619916915893554,0.4008121490478516,0
0.7706892013549804,0.3967718124389648,0
0.7698068618774414,0.3967718124389648,0
0.7815015792846679,0.3990566253662109,0
0.7929548263549805,0.3990566253662109,0
0.7848850250244140,0.4101974487304688,0
0.7759191513061523,0.4101974487304688,0
0.7818557739257812,0.4050899505615234,0
0.7955183029174805,0.4050899505615234,0
0.7901721954345703,0.4151853561401367,0
0.7787206649780273,0.4151853561401367,0
0.7868619918823242,0.4100389480590820,0
0.7849193572998047,0.4100389480590820,0
0.7955314636230468,0.4102912902832031,0
0.8057178497314453,0.4102912902832031,0
0.7965608596801758,0.4193607330322265,0
0.7865118026733399,0.4193607330322265,0
0.7915145874023437,0.4127466201782227,0
0.8043502807617188,0.4127466201782227,0
0.7982711791992188,0.4216249465942383,0
0.7861942291259766,0.4216249465942383,0
0.7937358856201172,0.4154794692993164,0
0.7912748336791992,0.4154794692993164,0
0.8011676788330078,0.4148180007934570,0
0.8107921600341796,0.4148180007934570,0
0.8010852813720702,0.4230125427246094,0
0.7904628753662110,0.4230125427246094,0
0.7951028823852538,0.4155841827392578,0
0.8072891235351562,0.4155841827392578,0
0.8009216308593750,0.4236471176147461,0
0.7883646011352539,0.4236471176147461,0
0.7956253051757812,0.4168373107910156,0
0.7926704406738281,0.4168373107910156,0
0.8023475646972656,0.4156190872192383,0
0.8115966796874999,0.4156190872192383,0
0.8014446258544922,0.4232105255126953,0
0.7904977798461914,0.4232105255126953,0
0.7948774337768555,0.4152997970581054,0
0.8067621231079102,0.4152997970581054,0
0.8001394271850586,0.4229209899902344,0
0.7874536514282227,0.4229209899902344,0
0.7945077896118163,0.4158737182617188,0
0.7913635253906249,0.4158737182617188,0
0.8009731292724609,0.4145753860473633,0
0.8101867675781250,0.4145753860473633,0
0.8002298355102538,0.4221805572509765,0
0.7893556594848633,0.4221805572509765,0
0.7938760757446289,0.4145256042480469,0
0.8057304382324219,0.4145256042480469,0
0.7995254516601562,0.4224340438842774,0
0.7871698379516602,0.4224340438842774,0
0.7944465637207031,0.4159000396728516,0
0.7917371749877929,0.4159000396728516,0
0.8014686584472656,0.4151132583618164,0
0.8108333587646485,0.4151132583618164,0
0.8026926040649414,0.4101579666137695,0
0.8009983062744140,0.4213405609130859,0
0.7952087402343749,0.4157112121582031,0
0.7926172256469727,0.4249551773071289,0
0.7923614501953125,0.4153942108154297,0
0.8114421844482421,0.4153942108154297,0
0.8019893646240234,0.4234170913696289,0
0.8034553527832031,0.4168745040893554,0
0.8034170150756835,0.4247692108154297,0
0.7971502304077148,0.4374893188476562,0
0.8090795516967774,0.4174306869506836,0
0.8030914306640625,0.4253448486328125,0
0.8033208847045898,0.4114522933959961,0
0.8033208847045898,0.4174661636352539,0
0.7952287673950195,0.4254398345947266,0
0.8031440734863281,0.4210447311401367,0
0.7940820693969727,0.4210447311401367,0
0.7964498519897460,0.4076499938964844,0
0.7821487426757813,0.4193138122558593,0
0.7872980117797851,0.4092138290405273,0
0.7890048980712890,0.4040611267089844,0
0.7778875350952148,0.4198053359985351,0
0.7826110839843750,0.4033704757690429,0
0.7726032257080078,0.4033704757690429,0
0.7757595062255859,0.3907911300659180,0
0.7633569717407226,0.4023902893066406,0
0.7689846038818359,0.3965337753295898,0
0.7774538040161133,0.4031341552734375,0
0.7727972030639648,0.4081283569335937,0
0.7831054687500000,0.4028257369995117,0
0.7803291320800781,0.4245500564575195,0
0.7937204360961914,0.4044822692871093,0
0.7787155151367188,0.4149158477783203,0
0.7873786926269531,0.4105865478515625,0
0.7942296981811523,0.4171279907226562,0
0.7881883621215821,0.4206481933593750,0
0.7975931167602539,0.4141942977905274,0
0.7987609863281250,0.4190900802612305,0
0.7901372909545898,0.4233238220214844,0
0.7989938735961913,0.4226898193359375,0
0.7956773757934570,0.4171371459960938,0
0.8028442382812500,0.4171440124511719,0
0.8125310897827148,0.4170232772827148,0
0.8034851074218750,0.4251737594604492,0
0.7971445083618164,0.4177734375000000,0
0.8010469436645508,0.4210367202758789,0
0.7942056655883789,0.4283523559570312,0
0.8133098602294921,0.4174867630004883,0
0.8050008773803711,0.4189270019531250,0
0.8144119262695312,0.4187278747558594,0
0.8050569534301758,0.4263244628906250,0
0.7980119705200195,0.4183078765869140,0
0.8015024185180664,0.4183078765869140,0
0.7911186218261719,0.4257722854614258,0
0.7983861923217773,0.4190832138061523,0
0.8042043685913086,0.4115415573120117,0
0.7953495025634766,0.4355787277221679,0
0.8028728485107421,0.4263273239135742,0
0.8032630920410156,0.4229598999023437,0
0.7965785980224609,0.4172893524169922,0
0.8016832351684570,0.4247680664062500,0
0.7975610733032227,0.4252092361450195,0
0.7943899154663085,0.4183444976806641,0
0.8129539489746094,0.4175668716430664,0
0.7948448181152343,0.4351684570312500,0
0.8047147750854492,0.4124176025390625,0
0.8034696578979492,0.4228219985961914,0
0.8022365570068359,0.4260229110717773,0
0.8022365570068359,0.4252784729003906,0
0.7984949111938476,0.4192274093627930,0
0.8043949127197265,0.4118631362915039,0
0.7961883544921875,0.4363346099853516,0
0.8040670394897461,0.4272045135498047,0
0.8053253173828124,0.4241008758544922,0
0.7983804702758789,0.4189092636108399,0
0.8040756225585938,0.4149719238281250,0
0.8006595611572266,0.4276645660400391,0
0.7975387573242188,0.4208747863769531,0
0.8068845748901367,0.4204261779785156,0
0.7981676101684571,0.4378280639648438,0
0.8078784942626953,0.4147659301757812,0
0.8064004898071289,0.4249546051025391,0
0.7942771911621094,0.4275072097778320,0
0.8035984039306641,0.4260566711425781,0
0.7981555938720702,0.4184440612792968,0
0.8027498245239257,0.4098609924316406,0
0.7914688110351562,0.4318485260009766,0
0.7976932525634766,0.4228832244873047,0
0.7985921859741211,0.4168704986572265,0
0.7888938903808593,0.4307401657104492,0
0.7923563003540038,0.4048215866088867,0
0.7800916671752930,0.4167531967163086,0
0.7841640472412109,0.4100246429443359,0
0.7932014465332031,0.4157506942749024,0
0.7852432250976562,0.4185710906982422,0
0.7952196121215820,0.4185710906982422,0
0.7893745422363281,0.4161140441894531,0
0.7893745422363281,0.4120405197143555,0
0.7970455169677734,0.4212810516357422,0
0.7889831542968749,0.4254535675048828,0
0.8017719268798827,0.4098718643188476,0
0.7902368545532227,0.4231401443481445,0
0.8033500671386719,0.4265464782714843,0
0.8048395156860352,0.4262952804565430,0
0.7982374191284179,0.4193944931030273,0
0.8021564483642578,0.4221267700195312,0
0.7966512680053711,0.4317037582397461,0
0.8164632797241210,0.4203975677490234,0
0.7968000411987305,0.4286230087280273,0
0.8092414855957031,0.4227561950683594,0
0.8104740142822265,0.4307538986206055,0
0.8114925384521484,0.4179651260375977,0
0.8065401077270508,0.4255451202392578,0
0.7995763778686523,0.4315303802490234,0
0.8198644638061523,0.4233341217041016,0
0.8060886383056640,0.4253105163574218,0
0.8117443084716797,0.4248699188232422,0
0.8030227661132813,0.4421133041381836,0
0.8132543563842773,0.4322937011718750,0
0.8132543563842773,0.4290647506713867,0
0.8005193710327149,0.4324522018432617,0
0.8103006362915038,0.4317718505859375,0
0.8067415237426757,0.4257768630981445,0
0.8120538711547851,0.4257768630981445,0
0.8031229019165039,0.4249820709228516,0
0.8031229019165039,0.4330667495727539,0
0.8130168914794922,0.4286962509155273,0
0.8039926528930664,0.4439014434814453,0
0.8096059799194336,0.4191907882690429,0
0.7979965209960938,0.4311784744262695,0
0.8022377014160156,0.4251571655273437,0
0.8112167358398438,0.4305999755859375,0
0.8022783279418945,0.4324974060058593,0
0.8117923736572266,0.4247755050659179,0
0.8033615112304687,0.4433332443237304,0
0.8140783309936523,0.4234622955322265,0
0.7978179931640624,0.4309198379516602,0
0.8001165390014648,0.4232683181762695,0
0.8113403320312500,0.4306406021118164,0
0.8113540649414063,0.4306406021118164,0
0.8124160766601562,0.4251199722290039,0
0.8006275177001952,0.4319561004638672,0
0.8041202545166015,0.4240476608276367,0
0.8072713851928711,0.4260005950927734,0
0.8011219024658203,0.4356451034545898,0
0.8206661224365234,0.4241935729980469,0
0.8002304077148438,0.4316076278686523,0
0.8125385284423828,0.4256744384765625,0
0.8141572952270507,0.4199541091918945,0
0.8132143020629883,0.4292821884155273,0
0.8008386611938476,0.4328561782836914,0
0.8108957290649413,0.4320447921752930,0
0.8069269180297851,0.4255954742431641,0
0.8113294601440429,0.4168350219726563,0
0.8006549835205078,0.4397066116333008,0
0.7954341888427734,0.4287517547607422,0
0.8079626083374023,0.4234468460083008,0
0.7890638351440430,0.4241088867187500,0
0.7992021560668945,0.4219173431396484,0
0.7921743392944336,0.4193481445312500,0
0.7938280105590820,0.4170284271240234,0
0.8024087905883789,0.4097991943359375,0
0.7925886154174805,0.4152111053466797,0
0.7800401687622071,0.4152111053466797,0
0.7834711074829102,0.4070823669433594,0
0.7944952011108398,0.4070823669433594,0
0.7909149169921875,0.4159286499023437,0
0.7807628631591796,0.4159286499023437,0
0.7903736114501952,0.4127260208129883,0
0.7880624771118164,0.4127260208129883,0
0.7983243942260742,0.4145931243896484,0
0.8096065521240234,0.4145931243896484,0
0.8021106719970703,0.4238691329956055,0
0.7912605285644531,0.4238691329956055,0
0.7956550598144531,0.4176961898803711,0
0.8072307586669921,0.4176961898803711,0
0.8038312911987304,0.4266935348510742,0
0.7933364868164062,0.4266935348510742,0
0.8023607254028320,0.4224901199340820,0
0.7993371963500976,0.4224901199340820,0
0.8087825775146484,0.4230571746826172,0
0.8193758010864257,0.4230571746826172,0
0.8110582351684570,0.4309593200683594,0
0.7994676589965820,0.4309593200683594,0
0.8031332015991210,0.4237564086914062,0
0.8141195297241210,0.4237564086914062,0
0.8102348327636718,0.4318033218383789,0
0.7991798400878906,0.4318033218383789,0
0.8078104019165039,0.4268337249755859,0
0.8041820526123047,0.4268337249755859,0
0.8131153106689453,0.4266225814819336,0
0.8045705795288086,0.4266225814819336,0
0.8144594192504883,0.4336755752563476,0
0.8024145126342773,0.4336755752563476,0
0.8057378768920899,0.4257751464843750,0
0.8162189483642578,0.4257751464843750,0
0.8120773315429687,0.4332269668579101,0
0.8006423950195313,0.4332269668579101,0
0.8090354919433593,0.4277189254760742,0
0.8049270629882812,0.4277189254760742,0
0.8135976791381836,0.4270362854003906,0
0.8234453201293945,0.4270362854003906,0
0.8146539688110351,0.4336956024169922,0
0.8022577285766601,0.4336956024169922,0
0.8052949905395508,0.4255027770996094,0
0.8156301498413085,0.4255027770996094,0
0.8115137100219726,0.4326341629028320,0
0.7999300003051758,0.4326341629028320,0
0.8081794738769531,0.4270282745361328,0
0.8040269851684571,0.4270282745361328,0
0.8126300811767578,0.4263404846191406,0
0.8224971771240234,0.4263404846191406,0
0.8136508941650390,0.4328166961669922,0
0.8012180328369141,0.4328166961669922,0
0.8043840408325195,0.4248470306396484,0
0.8147603988647460,0.4248470306396484,0
0.8108253479003906,0.4321660995483398,0
0.8011922836303711,0.4321660995483398,0
0.8077966690063476,0.4268920898437500,0
0.8124933242797852,0.4268920898437500,0
0.8126209259033202,0.4264366149902344,0
0.8226734161376953,0.4264366149902344,0
0.8139650344848632,0.4331686019897461,0
0.8017810821533203,0.4331686019897461,0
0.8049774169921875,0.4254941940307617,0
0.8154893875122070,0.4254941940307617,0
0.8118284225463867,0.4330358505249023,0
0.8005119323730469,0.4330358505249023,0
0.8091350555419922,0.4280084609985351,0
0.8052446365356445,0.4280084609985351,0
0.8138648986816406,0.4275964736938476,0
0.8240364074707031,0.4275964736938476,0
0.8152753829956054,0.4342535018920898,0
0.8030513763427735,0.4342535018920898,0
0.8060050964355469,0.4263347625732422,0
0.8161434173583985,0.4263347625732422,0
0.8119983673095703,0.4329156875610352,0
0.7999053955078125,0.4329156875610352,0
0.8074567794799804,0.4263233184814453,0
0.8024076461791992,0.4263233184814453,0
0.8096483230590820,0.4236854553222656,0
0.8180969238281249,0.4236854553222656,0
0.8055141448974609,0.4208988189697265,0
0.7937971115112304,0.4156694412231445,0
0.7960098266601562,0.4190586090087891,0
0.7820886611938477,0.4190586090087891,0
0.7885597229003906,0.4100727081298828,0
0.7825269699096680,0.4100727081298828,0
0.7895084381103515,0.4067825317382812,0
0.7985418319702148,0.4067825317382812,0
0.7893138885498047,0.4121400833129883,0
0.7768798828125000,0.4121400833129883,0
0.7806095123291016,0.4056432723999023,0
0.7922201156616211,0.4056432723999023,0
0.7902620315551757,0.4157009124755859,0
0.7806238174438477,0.4157009124755859,0
0.7910293579101563,0.4136947631835937,0
0.7886753082275391,0.4136947631835937,0
0.7989366531372070,0.4159767150878906,0
0.8108242034912109,0.4159767150878906,0
0.8033838272094727,0.4246931076049805,0
0.7919689178466797,0.4246931076049805,0
0.7961099624633788,0.4188354492187500,0
0.8074132919311523,0.4188354492187500,0
0.8049230575561523,0.4276325225830078,0
0.7942222595214844,0.4276325225830078,0
0.8035217285156250,0.4237535476684570,0
0.7999746322631835,0.4237535476684570,0
0.8093330383300781,0.4243589401245117,0
0.8203977584838867,0.4243589401245117,0
0.8120761871337890,0.4316825866699219,0
0.7998968124389648,0.4316825866699219,0
0.8034118652343750,0.4247697830200195,0
0.8142042160034180,0.4247697830200195,0
0.8112825393676758,0.4326862335205078,0
0.8000089645385742,0.4326862335205078,0
0.8089153289794921,0.4280994415283203,0
0.8049591064453124,0.4280994415283203,0
0.8138031005859375,0.4279541015625000,0
0.8244003295898438,0.4279541015625000,0
0.8157348632812500,0.4345161437988281,0
0.8030857086181641,0.4345161437988281,0
0.8061916351318359,0.4269573211669922,0
0.8165462493896484,0.4269573211669922,0
0.8132949829101562,0.4342826843261718,0
0.8016706466674804,0.4342826843261718,0
0.8103017807006836,0.4291231155395508,0
0.8060440063476563,0.4291231155395508,0
0.8144033432006835,0.4284444808959961,0
0.8247001647949218,0.4284444808959961,0
0.8157611846923828,0.4344234466552734,0
0.8028705596923827,0.4344234466552734,0
0.8056806564331055,0.4264892578125000,0
0.8157119750976562,0.4264892578125000,0
0.8123388290405273,0.4333574295043945,0
0.8005714416503906,0.4333574295043945,0
0.8088901519775390,0.4280364990234375,0
0.8045637130737304,0.4280364990234375,0
0.8127845764160156,0.4271455764770508,0
0.8230459213256835,0.4271455764770508,0
0.8141075134277344,0.4331508636474609,0
0.8012603759765625,0.4331508636474609,0
0.8042301177978516,0.4254261016845703,0
0.8144433975219726,0.4254261016845703,0
0.8112762451171874,0.4326530456542969,0
0.7997205734252929,0.4326530456542969,0
0.8083036422729492,0.4276582717895508,0
0.8041637420654296,0.4276582717895508,0
0.8126867294311523,0.4271638870239258,0
0.8046220779418946,0.4271638870239258,0
0.8145092010498046,0.4335479736328125,0
0.8018411636352539,0.4335479736328125,0
0.8049156188964843,0.4262557983398437,0
0.8153274536132812,0.4262557983398437,0
0.8124074935913086,0.4336229324340820,0
0.8010417938232421,0.4336229324340820,0
0.8097513198852538,0.4289588928222656,0
0.8056772232055663,0.4289588928222656,0
0.8142030715942382,0.4286046981811523,0
0.8246944427490234,0.4286046981811523,0
0.8160804748535156,0.4346929550170898,0
0.8032150268554688,0.4346929550170898,0
0.8060468673706055,0.4269498825073242,0
0.8158979415893555,0.4269498825073242,0
0.8122552871704102,0.4331422805786133,0
0.7999214172363281,0.4331422805786133,0
0.8073909759521484,0.4265619277954101,0
0.8019172668457031,0.4265619277954101,0
0.8086172103881836,0.4233432769775390,0
0.8170034408569335,0.4233432769775390,0
0.8061052322387695,0.4257173538208008,0
0.7908210754394531,0.4257173538208008,0
0.7914533615112305,0.4141021728515625,0
0.7988742828369141,0.4141021728515625,0
0.7933284759521484,0.4165191650390625,0
0.7789352416992187,0.4165191650390625,0
0.7851860046386718,0.4072677612304688,0
0.7788305282592773,0.4072677612304688,0
0.7856254577636719,0.4039489746093750,0
0.7950937271118164,0.4039489746093750,0
0.7861999511718750,0.4094741821289062,0
0.7737327575683594,0.4094741821289062,0
0.7777250289916992,0.4039501190185547,0
0.7894809722900390,0.4039501190185547,0
0.7883754730224609,0.4143630981445313,0
0.7789581298828124,0.4143630981445313,0
0.7895965576171875,0.4130355834960938,0
0.7874988555908203,0.4130355834960938,0
0.7975049972534179,0.4155143737792968,0
0.8096311569213867,0.4155143737792968,0
0.8022554397583007,0.4238250732421875,0
0.7906265258789062,0.4238250732421875,0
0.7947469711303711,0.4185441970825195,0
0.8059020996093750,0.4185441970825195,0
0.8038209915161133,0.4269744873046875,0
0.7931711196899414,0.4269744873046875,0
0.8025335311889649,0.4234188079833984,0
0.7990768432617187,0.4234188079833984,0
0.8081056594848632,0.4239995956420898,0
0.8005233764648437,0.4239995956420898,0
0.8110822677612305,0.4308849334716797,0
0.7986133575439452,0.4308849334716797,0
0.8021484375000000,0.4244733810424804,0
0.8127714157104492,0.4244733810424804,0
0.8102582931518555,0.4321088790893555,0
0.8003654479980469,0.4321088790893555,0
0.8080593109130859,0.4278293609619140,0
0.8040676116943359,0.4278293609619140,0
0.8124355316162110,0.4275981903076172,0
0.8231975555419921,0.4275981903076172,0
0.8147254943847656,0.4336566925048828,0
0.8017868041992188,0.4336566925048828,0
0.8048698425292968,0.4266952514648437,0
0.8149440765380859,0.4266952514648437,0
0.8122661590576171,0.4336475372314453,0
0.8005800247192383,0.4336475372314453,0
0.8091630935668945,0.4287220001220703,0
0.8049247741699218,0.4287220001220703,0
0.8130369186401367,0.4280033111572266,0
0.8233697891235351,0.4280033111572266,0
0.8145498275756836,0.4333597183227539,0
0.8013525009155273,0.4333597183227539,0
0.8040744781494140,0.4260383605957031,0
0.8139902114868164,0.4260383605957031,0
0.8110439300537109,0.4326324462890625,0
0.7992010116577148,0.4326324462890625,0
0.8077846527099609,0.4275781631469727,0
0.8033683776855468,0.4275781631469727,0
0.8113460540771484,0.4267467498779297,0
0.8218070983886718,0.4267467498779297,0
0.8131038665771484,0.4322330474853516,0
0.7999963760375977,0.4322330474853516,0
0.8029117584228516,0.4252183914184570,0
0.8130197525024414,0.4252183914184570,0
0.8101873397827148,0.4320430755615234,0
0.7985664367675781,0.4320430755615234,0
0.8075214385986328,0.4273790359497070,0
0.8033426284790038,0.4273790359497070,0
0.8115257263183594,0.4269836425781250,0
0.8222299575805664,0.4269836425781250,0
0.8136503219604492,0.4327463150024414,0
0.8007282257080078,0.4327463150024414,0
0.8039085388183593,0.4262369155883789,0
0.8140056610107421,0.4262369155883789,0
0.8115646362304687,0.4332149505615234,0
0.8000793457031250,0.4332149505615234,0
0.8091865539550781,0.4287780761718750,0
0.8049716949462891,0.4287780761718750,0
0.8132005691528320,0.4285383224487305,0
0.8239356994628906,0.4285383224487305,0
0.8154762268066406,0.4341098785400391,0
0.8022256851196289,0.4341098785400391,0
0.8051359176635742,0.4271490097045899,0
0.8147987365722656,0.4271490097045899,0
0.8116733551025390,0.4330083847045899,0
0.7992759704589844,0.4330083847045899,0
0.8073211669921875,0.4268955230712890,0
0.8016448974609375,0.4268955230712890,0
0.8081697463989258,0.4236751556396484,0
0.8167711257934570,0.4236751556396484,0
0.8060440063476563,0.4255285263061523,0
0.7903873443603515,0.4255285263061523,0
0.7907993316650390,0.4143070220947265,0
0.7924570083618164,0.4160974502563476,0
0.7778314590454102,0.4160974502563476,0
0.7841400146484375,0.4066497802734375,0
0.7772489547729492,0.4066497802734375,0
0.7834373474121094,0.4028532028198242,0
0.7929136276245117,0.4028532028198242,0
0.7838933944702148,0.4074480056762695,0
0.7708190917968750,0.4074480056762695,0
0.7744634628295898,0.4022071838378906,0
0.7858154296875000,0.4022071838378906,0
0.7850006103515624,0.4120267868041992,0
0.7756444931030273,0.4120267868041992,0
0.7869306564331054,0.4113367080688476,0
0.7845754623413086,0.4113367080688476,0
0.7944185256958007,0.4139087677001953,0
0.8069149017333984,0.4139087677001953,0
0.7998458862304687,0.4218807220458984,0
0.7879457473754883,0.4218807220458984,0
0.7920518875122070,0.4173797607421875,0
0.8031337738037109,0.4173797607421875,0
0.8015533447265625,0.4255771636962891,0
0.7907638549804688,0.4255771636962891,0
0.8008346557617188,0.4224832534790039,0
0.7971622467041015,0.4224832534790039,0
0.8057470321655273,0.4230583190917969,0
0.8172649383544922,0.4230583190917969,0
0.8093582153320312,0.4294332504272461,0
0.7965076446533202,0.4294332504272461,0
0.7999568939208984,0.4237512588500976,0
0.8104373931884765,0.4237512588500976,0
0.8082452774047851,0.4310926437377929,0
0.7968973159790039,0.4310926437377929,0
0.8066780090332031,0.4272491455078125,0
0.8023195266723633,0.4272491455078125,0
0.8105970382690429,0.4268737792968750,0
0.8216651916503906,0.4268737792968750,0
0.8132040023803710,0.4325019836425781,0
0.7998893737792968,0.4325019836425781,0
0.8029260635375977,0.4261499404907226,0
0.8128578186035156,0.4261499404907226,0
0.8103492736816406,0.4326244354248047,0
0.7987020492553710,0.4326244354248047,0
0.8081073760986328,0.4282630920410156,0
0.8033294677734375,0.4282630920410156,0
0.8110977172851562,0.4272840499877930,0
0.8218088150024414,0.4272840499877930,0
0.8131221771240235,0.4323240280151367,0
0.7994562149047851,0.4323240280151367,0
0.8022073745727539,0.4255737304687500,0
0.8119142532348632,0.4255737304687500,0
0.8092163085937499,0.4316831588745117,0
0.7974409103393555,0.4316831588745117,0
0.8067266464233398,0.4272348403930664,0
0.8019441604614258,0.4272348403930664,0
0.8096426010131835,0.4262557983398437,0
0.8204355239868164,0.4262557983398437,0
0.8118719100952149,0.4313936233520508,0
0.7984439849853515,0.4313936233520508,0
0.8012655258178710,0.4249448776245117,0
0.8111371994018555,0.4249448776245117,0
0.8087476730346680,0.4314434051513672,0
0.7972761154174804,0.4314434051513672,0
0.8069904327392577,0.4274471282958984,0
0.8023344039916992,0.4274471282958984,0
0.8102434158325195,0.4268457412719727,0
0.8211845397949219,0.4268457412719727,0
0.8128646850585938,0.4322902679443359,0
0.7996072769165039,0.4322902679443359,0
0.8027486801147461,0.4262180328369141,0
0.8126718521118164,0.4262180328369141,0
0.8103939056396484,0.4329048156738281,0
0.7989852905273437,0.4329048156738281,0
0.8089227676391602,0.4290859222412109,0
0.8043760299682617,0.4290859222412109,0
0.8122283935546875,0.4285629272460937,0
0.8232959747314453,0.4285629272460937,0
0.8150344848632812,0.4338935852050781,0
0.8015699386596680,0.4338935852050781,0
0.8044990539550781,0.4276250839233398,0
0.8141555786132812,0.4276250839233398,0
0.8115228652954102,0.4335010528564453,0
0.7994493484497071,0.4335010528564453,0
0.8086463928222656,0.4285451889038086,0
0.8029918670654297,0.4285451889038086,0
0.8095390319824218,0.4258781433105469,0
0.8190382003784179,0.4258781433105469,0
0.8088724136352539,0.4282487869262695,0
0.7933553695678711,0.4282487869262695,0
0.7942193984985352,0.4185081481933594,0
0.8016826629638671,0.4185081481933594,0
0.7971015930175781,0.4208942413330078,0
0.7831060409545898,0.4208942413330078,0
0.7909463882446289,0.4131797790527343,0
0.7839626312255860,0.4131797790527343,0
0.7897893905639648,0.4091262817382812,0
0.7994001388549804,0.4091262817382812,0
0.7901767730712891,0.4126705169677734,0
0.7764490127563476,0.4126705169677734,0
0.7797260284423828,0.4072139739990234,0
0.7904348373413086,0.4072139739990234,0
0.7894500732421875,0.4158897399902344,0
0.7795417785644531,0.4158897399902344,0
0.7914602279663085,0.4152236938476562,0
0.7884075164794921,0.4152236938476562,0
0.7974901199340820,0.4170364379882812,0
0.8101415634155273,0.4170364379882812,0
0.8030525207519531,0.4244298934936523,0
0.7908742904663085,0.4244298934936523,0
0.7947961807250976,0.4202642440795898,0
0.8055908203125000,0.4202642440795898,0
0.8042427062988281,0.4281578063964844,0
0.7934715270996093,0.4281578063964844,0
0.8044498443603515,0.4257946014404297,0
0.8002990722656250,0.4257946014404297,0
0.8083700180053711,0.4259490966796875,0
0.8201105117797851,0.4259490966796875,0
0.8123411178588867,0.4318759918212891,0
0.8120464324951172,0.4266042709350586,0
0.8128366470336914,0.4266042709350586,0
0.7998086929321289,0.4331680297851562,0
0.8009061813354492,0.4266151428222656,0
0.8217103958129882,0.4266151428222656,0
0.8132738113403321,0.4356576919555664,0
0.8011940002441406,0.4356576919555664,0
0.8052715301513672,0.4364633560180664,0
0.8129814147949218,0.4364633560180664,0
0.8154493331909179,0.4292301177978515,0
0.8158493041992188,0.4292301177978515,0
0.8083768844604492,0.4352714538574219,0
0.8021100997924805,0.4352714538574219,0
0.8027950286865234,0.4280101776123047,0
0.8232793807983398,0.4280101776123047,0
0.8146362304687500,0.4365737915039062,0
0.8021421432495117,0.4365737915039062,0
0.8059364318847656,0.4368844985961914,0
0.8133321762084961,0.4368844985961914,0
0.8155941009521485,0.4292175292968750,0
0.8156959533691406,0.4292175292968750,0
0.8078990936279297,0.4348617553710937,0
0.8014795303344726,0.4348617553710937,0
0.8018972396850585,0.4273859024047851,0
0.8222991943359375,0.4273859024047851,0
0.8135879516601562,0.4357011795043945,0
0.8010286331176758,0.4357011795043945,0
0.8047599792480469,0.4358465194702149,0
0.8122077941894531,0.4358465194702149,0
0.8145938873291015,0.4283374786376953,0
0.8148170471191406,0.4283374786376953,0
0.8070888519287109,0.4342226028442382,0
0.8008460998535156,0.4342226028442382,0
0.8016248703002929,0.4270631790161133,0
0.8223266601562500,0.4270631790161133,0
0.8137590408325195,0.4358036041259766,0
0.8014646530151367,0.4358036041259766,0
0.8053167343139648,0.4362865447998047,0
0.8130300521850585,0.4362865447998047,0
0.8157039642333984,0.4290658950805664,0
0.8161508560180664,0.4290658950805664,0
0.8084856033325195,0.4352714538574219,0
0.8024173736572265,0.4352714538574219,0
0.8032339096069335,0.4284135818481445,0
0.8241250991821288,0.4284135818481445,0
0.8155368804931641,0.4372684478759766,0
0.8151134490966797,0.4313375473022461,0
0.8182754516601562,0.4290613174438476,0
0.8076490402221680,0.4304592132568359,0
0.8171756744384765,0.4303848266601563,0
0.8148799896240234,0.4365972518920898,0
0.8043399810791015,0.4325729370117187,0
0.8153612136840820,0.4233409881591797,0
0.8051794052124023,0.4444118499755859,0
0.8116292953491211,0.4358596801757812,0
0.8116521835327148,0.4261957168579101,0
0.8014371871948242,0.4247411727905273,0
0.8052165985107421,0.4282367706298828,0
0.8010726928710937,0.4252807617187500,0
0.7941747665405273,0.4218378067016602,0
0.7996822357177734,0.4181316375732422,0
0.8006246566772460,0.4215625762939453,0
0.7994121551513672,0.4152408599853515,0
0.7920461654663086,0.4218984603881836,0
0.7977132797241211,0.4218984603881836,0
0.7992502212524414,0.4247772216796875,0
0.7951955795288086,0.4212913513183594,0
0.8032270431518554,0.4221353530883789,0
0.8085250854492188,0.4288839340209961,0
0.8088827133178711,0.4236242294311524,0
0.8031463623046875,0.4243194580078125,0
0.7982860565185547,0.4323675155639649,0
0.7994058609008788,0.4257053375244140,0
0.8127862930297851,0.4218807220458984,0
0.8053911209106445,0.4451848983764649,0
0.8134729385375976,0.4366641998291015,0
0.8172832489013672,0.4298183441162109,0
0.8069612503051757,0.4302251815795898,0
0.8151329040527343,0.4244058609008789,0
0.8152873992919921,0.4377788543701172,0
0.8103492736816406,0.4345018386840820,0
0.8172077178955078,0.4334352493286133,0
0.8204933166503906,0.4384477615356445,0
0.8198616027832031,0.4322765350341797,0
0.8121414184570312,0.4385622024536133,0
0.8171602249145508,0.4385622024536133,0
0.8167213439941406,0.4387870788574219,0
0.8179195404052734,0.4339044570922851,0
0.8097827911376952,0.4485380172729492,0
0.8069738388061524,0.4383808135986328,0
0.8197454452514649,0.4320528030395508,0
0.8114084243774414,0.4379510879516602,0
0.8058414459228516,0.4306840896606445,0
0.8155294418334961,0.4377874374389648,0
0.8165113449096679,0.4359048843383789,0
0.8277568817138672,0.4328636169433593,0
0.8056423187255859,0.4372856140136719,0
0.8183715820312499,0.4310131072998047,0
0.8103944778442382,0.4371374130249023,0
0.8153806686401367,0.4244842529296875,0
0.8150625228881836,0.4374698638916015,0
0.8097501754760742,0.4342340469360351,0
0.8277940750122070,0.4328372955322266,0
0.8084627151489258,0.4391418457031250,0
0.8189008712768554,0.4313919067382813,0
0.8088529586791992,0.4498203277587891,0
0.8163516998291015,0.4254484176635742,0
0.8049940109252930,0.4380420684814453,0
0.8111160278320312,0.4353784561157226,0
0.8183544158935546,0.4399269104003906,0
0.8099321365356446,0.4404304504394531,0
0.8175252914428711,0.4404304504394531,0
0.8103796005249023,0.4327354431152344,0
0.8103796005249023,0.4329465866088867,0
0.8175945281982422,0.4387287139892578,0
0.8071174621582031,0.4456718444824219,0
0.8183378219604492,0.4262947082519531,0
0.8048738479614258,0.4396202087402344,0
0.8143066406250000,0.4385456085205078,0
0.8178857803344727,0.4360370635986328,0
0.8042976379394531,0.4274099349975586,0
0.8047416687011718,0.4274099349975586,0
0.7958999633789062,0.4303401947021484,0
0.7958999633789062,0.4220987319946289,0
0.8041322708129882,0.4275266647338867,0
0.8019178390502929,0.4232608795166016,0
0.8022829055786133,0.4229787826538086,0
0.7881557464599609,0.4229787826538086,0
0.7997629165649414,0.4163143157958984,0
0.7927522659301758,0.4226423263549804,0
0.7888624191284179,0.4172624588012695,0
0.8001142501831054,0.4254713058471680,0
0.8039880752563476,0.4261127471923828,0
0.8168626785278320,0.4230611801147461,0
0.7972332000732422,0.4297954559326172,0
0.8098028182983398,0.4243892669677734,0
0.8040796279907226,0.4324544906616211,0
0.8101873397827148,0.4324544906616211,0
0.8223449707031250,0.4269836425781250,0
0.8114948272705078,0.4316511154174805,0
0.8143472671508789,0.4313083648681640,0
0.8068719863891601,0.4465862274169922,0
0.8182291030883789,0.4246856689453125,0
0.8189998626708984,0.4312088012695313,0
0.8056222915649414,0.4382331848144531,0
0.8168003082275390,0.4384334564208984,0
0.8171728134155273,0.4361955642700195,0
0.8192573547363281,0.4275941848754883,0
0.8110513687133789,0.4351037979125976,0
0.8110513687133789,0.4416040420532226,0
0.8214511871337891,0.4338380813598633,0
0.8114055633544922,0.4521217346191406,0
0.8187383651733399,0.4400167465209961,0
0.8081691741943359,0.4400167465209961,0
0.8201013565063476,0.4370721817016601,0
0.8201013565063476,0.4414226531982422,0
0.8112516403198242,0.4417030334472656,0
0.8219003677368164,0.4325912475585937,0
0.8107172012329101,0.4515403747558593,0
0.8196235656738281,0.4333105087280273,0
0.8056715011596679,0.4390954971313477,0
0.8067810058593750,0.4320739746093750,0
0.8184608459472656,0.4401603698730469,0
0.8179607391357422,0.4401603698730469,0
0.8203451156616210,0.4314371109008789,0
0.8068199157714844,0.4386835098266602,0
0.8093055725097656,0.4322616577148438,0
0.8115034103393555,0.4311738967895508,0
0.8058683395385742,0.4455556869506836,0
0.8271789550781250,0.4315057754516601,0
0.8056858062744140,0.4399864196777344,0
0.8179389953613281,0.4341773986816406,0
0.8206363677978515,0.4390342712402344,0
0.8200515747070313,0.4390342712402344,0
0.8123691558837890,0.4329980850219726,0
0.8123691558837890,0.4393009185791015,0
0.8070207595825195,0.4326152801513672,0
0.8175098419189453,0.4395589828491211,0
0.8193105697631836,0.4384552001953125,0
0.8309434890747071,0.4354883193969726,0
0.8089181900024414,0.4402645111083984,0
0.8215141296386719,0.4347307205200195,0
0.8134809494018554,0.4401329040527344,0
0.8072490692138672,0.4401329040527344,0
0.8171396255493164,0.4326255798339844,0
0.8171396255493164,0.4358213424682617,0
0.8168231964111328,0.4329065322875976,0
0.8071426391601563,0.4465398788452148,0
0.8136016845703125,0.4208547592163086,0
0.8115795135498046,0.4275100708007812,0
0.7922784805297851,0.4290235519409180,0
0.8035526275634766,0.4268325805664062,0
0.7973470687866211,0.4183736801147461,0
0.7962478637695313,0.4070772171020507,0
0.7819576263427734,0.4119403839111328,0
0.7756244659423828,0.4128650665283203,0
0.7883148193359375,0.4062372207641601,0
0.7793849945068360,0.4041698455810547,0
0.7752096176147460,0.4207649230957031,0
0.7984548568725586,0.4065313339233398,0
0.7933073043823242,0.4186014175415039,0
0.7933073043823242,0.4147041320800781,0
0.8003849029541016,0.4230319976806641,0
0.7887193679809570,0.4230319976806641,0
0.7928174972534180,0.4194889068603516,0
0.8036693572998047,0.4194889068603516,0
0.8030536651611327,0.4281274795532227,0
0.7921354293823242,0.4281274795532227,0
0.8048658370971680,0.4265562057495117,0
0.8003059387207031,0.4265562057495117,0
0.8082332611083984,0.4269195556640625,0
0.8207284927368164,0.4269195556640625,0
0.8128572463989258,0.4330907821655273,0
0.7998950958251952,0.4330907821655273,0
0.8030891418457031,0.4278711318969726,0
0.8130632400512695,0.4278711318969726,0
0.8115262985229492,0.4351518630981445,0
0.7997577667236327,0.4351518630981445,0
0.8119308471679687,0.4323297500610351,0
0.8069160461425781,0.4323297500610351,0
0.8140949249267578,0.4317140579223633,0
0.8259630203247070,0.4317140579223633,0
0.8176042556762695,0.4369646072387695,0
0.8041849136352539,0.4369646072387695,0
0.8068010330200195,0.4309335708618164,0
0.8163757324218750,0.4309335708618164,0
0.8143764495849609,0.4375631332397461,0
0.8022039413452148,0.4375631332397461,0
0.8139387130737304,0.4338214874267578,0
0.8084129333496094,0.4338214874267578,0
0.8151128768920898,0.4325494766235352,0
0.8264259338378906,0.4325494766235352,0
0.8178680419921874,0.4371585845947266,0
0.8041448593139648,0.4371585845947266,0
0.8064027786254883,0.4305107116699219,0
0.8155483245849610,0.4305107116699219,0
0.8132120132446289,0.4366636276245117,0
0.8006366729736328,0.4366636276245117,0
0.8121608734130860,0.4323194503784180,0
0.8064817428588867,0.4323194503784180,0
0.8127176284790039,0.4308357238769531,0
0.8238693237304687,0.4308357238769531,0
0.8155197143554688,0.4353452682495117,0
0.8143793106079101,0.4299648284912109,0
0.8069429397583008,0.4350299835205078,0
0.8114942550659180,0.4281120300292969,0
0.8220748901367188,0.4281120300292969,0
0.8130088806152344,0.4365034103393555,0
0.8006355285644531,0.4365034103393555,0
0.8046804428100586,0.4375848770141602,0
0.8122215270996094,0.4375848770141602,0
0.8149847030639649,0.4306652069091797,0
0.8153217315673827,0.4306652069091797,0
0.8079351425170899,0.4360925674438477,0
0.8019859313964843,0.4360925674438477,0
0.8018634796142577,0.4293588638305664,0
0.8236988067626952,0.4293588638305664,0
0.8147678375244141,0.4379602432250976,0
0.8023956298828124,0.4379602432250976,0
0.8064302444458008,0.4389793395996094,0
0.8139684677124023,0.4389793395996094,0
0.8163911819458007,0.4319475173950195,0
0.8163013458251953,0.4319475173950195,0
0.8086532592773438,0.4362676620483398,0
0.8018589019775391,0.4362676620483398,0
0.8006011962890625,0.4279489517211914,0
0.8210460662841796,0.4279489517211914,0
0.8104293823242187,0.4337179183959961,0
0.7959102630615235,0.4337179183959961,0
0.7976285934448242,0.4308849334716797,0
0.8025003433227539,0.4308849334716797,0
0.8022680282592773,0.4190557479858398,0
0.7992570877075195,0.4190557479858398,0
0.7886215209960937,0.4182163238525390,0
0.7788076400756836,0.4182163238525390,0
0.7750545501708984,0.4051666259765625,0
0.7935173034667968,0.4051666259765625,0
0.7818929672241210,0.4089826583862304,0
0.7672124862670898,0.4089826583862304,0
0.7695459365844727,0.4073764801025391,0
0.7762161254882812,0.4073764801025391,0
0.7788946151733398,0.4006113052368164,0
0.7799079895019531,0.4006113052368164,0
0.7741676330566406,0.4082874298095703,0
0.7701850891113281,0.4082874298095703,0
0.7724533081054688,0.4056535720825195,0
0.7967479705810546,0.4056535720825195,0
0.7900005340576172,0.4182563781738281,0
0.7796665191650390,0.4182563781738281,0
0.7853055953979492,0.4223093032836914,0
0.7944076538085937,0.4223093032836914,0
0.7983764648437500,0.4179914474487305,0
0.7897029876708984,0.4179914474487305,0
0.7937490463256835,0.4247943878173828,0
0.7993143081665038,0.4247943878173828,0
0.7893888473510742,0.4193801879882812,0
0.8116081237792968,0.4193801879882812,0
0.8033351898193359,0.4290864944458008,0
0.7917228698730469,0.4290864944458008,0
0.7961465835571289,0.4310085296630859,0
0.8042398452758789,0.4310085296630859,0
0.8073308944702148,0.4254066467285156,0
0.8080129623413086,0.4254066467285156,0
0.8014286041259765,0.4310382843017578,0
0.7956504821777344,0.4310382843017578,0
0.7959777832031250,0.4247474670410156,0
0.8176397323608399,0.4247474670410156,0
0.8087911605834961,0.4335948944091797,0
0.7967056274414063,0.4335948944091797,0
0.8006635665893554,0.4347398757934570,0
0.8116596221923827,0.4347398757934570,0
0.8108963012695313,0.4282550811767578,0
0.8110427856445312,0.4282550811767578,0
0.8040716171264648,0.4331365585327148,0
0.7978448867797852,0.4331365585327148,0
0.7980028152465820,0.4260457992553711,0
0.8190176010131835,0.4260457992553711,0
0.8096929550170898,0.4342237472534179,0
0.7970718383789063,0.4342237472534179,0
0.8005674362182617,0.4345493316650391,0
0.8075511932373046,0.4345493316650391,0
0.8099956512451172,0.4271787643432617,0
0.8097862243652344,0.4271787643432617,0
0.8025112152099609,0.4317975997924804,0
0.7960704803466797,0.4317975997924804,0
0.7961809158325195,0.4244504928588867,0
0.8168855667114258,0.4244504928588867,0
0.8075574874877930,0.4325237274169922,0
0.7950336456298828,0.4325237274169922,0
0.7987323760986328,0.4331371307373047,0
0.8057167053222656,0.4331371307373047,0
0.8084953308105468,0.4260229110717773,0
0.8087837219238281,0.4260229110717773,0
0.8017862319946288,0.4312854766845703,0
0.7956836700439452,0.4312854766845703,0
0.7962106704711914,0.4244785308837891,0
0.8171253204345703,0.4244785308837891,0
0.8081869125366211,0.4331594467163086,0
0.7959211349487304,0.4331594467163086,0
0.7998733520507812,0.4343215942382813,0
0.8071500778198242,0.4343215942382813,0
0.8102279663085937,0.4273504257202148,0
0.8107412338256835,0.4273504257202148,0
0.8040138244628906,0.4330759048461914,0
0.7978351593017577,0.4330759048461914,0
0.7984909057617188,0.4264154434204102,0
0.8196613311767578,0.4264154434204102,0
0.8105707168579102,0.4351541519165039,0
0.7982013702392577,0.4351541519165039,0
0.8021375656127929,0.4361726760864258,0
0.8092260360717773,0.4361726760864258,0
0.8120882034301757,0.4286533355712890,0
0.8120481491088867,0.4286533355712890,0
0.8047382354736328,0.4334987640380859,0
0.7976875305175781,0.4334987640380859,0
0.7973379135131836,0.4251010894775391,0
0.8171047210693360,0.4251010894775391,0
0.8064743041992187,0.4311796188354492,0
0.7921125411987304,0.4311796188354492,0
0.7938320159912109,0.4286252975463867,0
0.7985961914062499,0.4286252975463867,0
0.7992782592773438,0.4171697616577149,0
0.7966346740722656,0.4171697616577149,0
0.7871864318847656,0.4178524017333984,0
0.7778926849365234,0.4178524017333984,0
0.7757543563842774,0.4059528350830078,0
0.7939550399780273,0.4059528350830078,0
0.7827758789062500,0.4108131408691406,0
0.7688753128051757,0.4108131408691406,0
0.7718021392822265,0.4101957321166992,0
0.7786022186279297,0.4101957321166992,0
0.7819908142089843,0.4036314010620117,0
0.7832496643066406,0.4036314010620117,0
0.7778783798217773,0.4117326736450195,0
0.7735742568969727,0.4117326736450195,0
0.7762029647827148,0.4084178924560547,0
0.7989629745483399,0.4084178924560547,0
0.7917652130126953,0.4201887130737305,0
0.7812486648559570,0.4201887130737305,0
0.7865192413330078,0.4236906051635742,0
0.7948820114135742,0.4236906051635742,0
0.7991729736328125,0.4186843872070312,0
0.8005336761474610,0.4186843872070312,0
0.7946966171264648,0.4259101867675781,0
0.7893962860107422,0.4259101867675781,0
0.7909057617187499,0.4204713821411133,0
0.8122524261474610,0.4204713821411133,0
0.8037363052368164,0.4300249099731445,0
0.7921932220458984,0.4300249099731445,0
0.7965391159057617,0.4318874359130859,0
0.8039937973022461,0.4318874359130859,0
0.8075775146484375,0.4256029129028320,0
0.8082080841064453,0.4256029129028320,0
0.8019258499145507,0.4317146301269531,0
0.7960224151611328,0.4317146301269531,0
0.7969991683959960,0.4253854751586914,0
0.8177633285522461,0.4253854751586914,0
0.8088123321533203,0.4341482162475586,0
0.7967926025390625,0.4341482162475586,0
0.8005416870117187,0.4351261138916016,0
0.8076124191284180,0.4351261138916016,0
0.8107360839843750,0.4280891418457031,0
0.8108213424682617,0.4280891418457031,0
0.8041196823120117,0.4334781646728516,0
0.7977865219116210,0.4334781646728516,0
0.7985406875610351,0.4264371871948242,0
0.8072668075561523,0.4264371871948242,0
0.8094966888427734,0.4345739364624023,0
0.7970237731933594,0.4345739364624023,0
0.8004947662353515,0.4349527359008789,0
0.8070499420166015,0.4349527359008789,0
0.8100065231323242,0.4274414062500000,0
0.8097558975219726,0.4274414062500000,0
0.8026794433593750,0.4324024200439453,0
0.7962987899780273,0.4324024200439453,0
0.7969459533691406,0.4251668930053711,0
0.8168025970458984,0.4251668930053711,0
0.8076936721801757,0.4331211090087890,0
0.7956104278564453,0.4331211090087890,0
0.7989091873168945,0.4336292266845703,0
0.8056388854980469,0.4336292266845703,0
0.8087110519409180,0.4264331817626953,0
0.8087779998779296,0.4264331817626953,0
0.8019750595092773,0.4320276260375976,0
0.7956270217895508,0.4320276260375976,0
0.7967594146728515,0.4251989364624023,0
0.8173101425170898,0.4251989364624023,0
0.8082647323608398,0.4338209152221680,0
0.7960458755493164,0.4338209152221680,0
0.7999946594238281,0.4346220016479492,0
0.8069921493530273,0.4346220016479492,0
0.8102462768554687,0.4278928756713867,0
0.8103744506835937,0.4278928756713867,0
0.8036624908447265,0.4334506988525391,0
0.7975553512573242,0.4334506988525391,0
0.7989692687988281,0.4267724990844726,0
0.8194175720214844,0.4267724990844726,0
0.8103012084960938,0.4354162216186523,0
0.7979993820190430,0.4354162216186523,0
0.8017467498779297,0.4359935760498047,0
0.8084615707397461,0.4359935760498047,0
0.8113248825073242,0.4285360336303711,0
0.8108425140380859,0.4285360336303711,0
0.8033306121826171,0.4328046798706054,0
0.7961048126220703,0.4328046798706054,0
0.7962066650390625,0.4240814208984375,0
0.8151243209838867,0.4240814208984375,0
0.8040166854858398,0.4297296524047852,0
0.7896434783935546,0.4297296524047852,0
0.7914590835571289,0.4268234252929687,0
0.7961397171020508,0.4268234252929687,0
0.7969453811645507,0.4157970428466797,0
0.7945318222045898,0.4157970428466797,0
0.7853919982910156,0.4170730590820312,0
0.7766761779785156,0.4170730590820312,0
0.7760496139526367,0.4065599441528320,0
0.7948637008666992,0.4065599441528320,0
0.7844987869262695,0.4132467269897461,0
0.7718084335327148,0.4132467269897461,0
0.7758087158203125,0.4142509460449219,0
0.7835792541503906,0.4142509460449219,0
0.7878479003906250,0.4094507217407227,0
0.7895473480224610,0.4094507217407227,0
0.7845605850219727,0.4179147720336914,0
0.7801671981811523,0.4179147720336914,0
0.7831924438476562,0.4143213272094726,0
0.8047725677490234,0.4143213272094726,0
0.7972595214843750,0.4250925064086914,0
0.7867366790771484,0.4250925064086914,0
0.7915758132934571,0.4279678344726562,0
0.7994499206542969,0.4279678344726562,0
0.8034765243530273,0.4227888107299805,0
0.8045139312744141,0.4227888107299805,0
0.7985132217407226,0.4293674468994140,0
0.7931734085083008,0.4293674468994140,0
0.7949295043945312,0.4239126205444336,0
0.8154630661010742,0.4239126205444336,0
0.8071186065673828,0.4332447052001953,0
0.7958816528320313,0.4332447052001953,0
0.7999975204467773,0.4348131179809570,0
0.8071718215942383,0.4348131179809570,0
0.8105484008789062,0.4283815383911133,0
0.8110204696655273,0.4283815383911133,0
0.8045082092285156,0.4341745376586914,0
0.7985750198364258,0.4341745376586914,0
0.7994562149047851,0.4277812957763672,0
0.8200469970703125,0.4277812957763672,0
0.8111171722412109,0.4363185882568359,0
0.7991895675659180,0.4363185882568359,0
0.8030399322509766,0.4371557235717773,0
0.8097850799560546,0.4371557235717773,0
0.8127021789550781,0.4300432205200195,0
0.8127227783203125,0.4300432205200195,0
0.8058654785156250,0.4352159500122070,0
0.7995008468627930,0.4352159500122070,0
0.7999443054199219,0.4282167434692383,0
0.8201333999633789,0.4282167434692383,0
0.8111080169677735,0.4360748291015625,0
0.7988519668579102,0.4360748291015625,0
0.8021587371826172,0.4364250183105469,0
0.8087665557861328,0.4364250183105469,0
0.8113946914672852,0.4290006637573242,0
0.8112195968627930,0.4290006637573242,0
0.8041494369506835,0.4337162017822265,0
0.7976720809936523,0.4337162017822265,0
0.7979524612426757,0.4266328811645508,0
0.8184642791748047,0.4266328811645508,0
0.8092351913452148,0.4346935272216797,0
0.7968658447265625,0.4346935272216797,0
0.8005640029907226,0.4353710174560547,0
0.8077703475952148,0.4353710174560547,0
0.8105718612670898,0.4282814025878906,0
0.8104797363281250,0.4282814025878906,0
0.8037488937377929,0.4335680007934570,0
0.7975570678710937,0.4335680007934570,0
0.7982345581054687,0.4269710540771484,0
0.8191858291625976,0.4269710540771484,0
0.8102062225341796,0.4355398178100586,0
0.7981178283691406,0.4355398178100586,0
0.8020225524902344,0.4366476058959961,0
0.8094057083129883,0.4366476058959961,0
0.8124097824096680,0.4298337936401367,0
0.8124893188476562,0.4298337936401367,0
0.8057367324829101,0.4352176666259766,0
0.7995294570922852,0.4352176666259766,0
0.8002321243286132,0.4285720825195312,0
0.8211153030395507,0.4285720825195312,0
0.8119846343994140,0.4370172500610351,0
0.7996215820312500,0.4370172500610351,0
0.8032110214233398,0.4375219345092773,0
0.8100379943847656,0.4375219345092773,0
0.8121986389160156,0.4295751571655274,0
0.8112092971801758,0.4295751571655274,0
0.8033603668212891,0.4328762054443359,0
0.7956579208374023,0.4328762054443359,0
0.7946834564208984,0.4233215332031250,0
0.8135501861572265,0.4233215332031250,0
0.8023693084716796,0.4283248901367188,0
0.7879726409912109,0.4283248901367188,0
0.7893653869628906,0.4251977920532227,0
0.7946577072143555,0.4062389373779297,0
0.7946577072143555,0.4140552520751953,0
0.7830436706542968,0.4151241302490234,0
0.7749017715454102,0.4151241302490234,0
0.7742300033569336,0.4060249328613281,0
0.7943006515502929,0.4060249328613281,0
0.7852815628051758,0.4143373489379883,0
0.7737167358398437,0.4143373489379883,0
0.7784860610961913,0.4172819137573242,0
0.7873655319213867,0.4172819137573242,0
0.7919815063476562,0.4135150909423828,0
0.7937942504882812,0.4135150909423828,0
0.7887210845947266,0.4217308044433594,0
0.7841606140136719,0.4217308044433594,0
0.7863670349121094,0.4176012039184570,0
0.8086435317993164,0.4176012039184570,0
0.8008203506469727,0.4281635284423828,0
0.7898557662963867,0.4281635284423828,0
0.7946142196655274,0.4309690475463867,0
0.8029174804687500,0.4309690475463867,0
0.8065280914306641,0.4255857467651367,0
0.8071043014526367,0.4255857467651367,0
0.8009874343872070,0.4316991806030273,0
0.7953609466552735,0.4316991806030273,0
0.7967090606689453,0.4259199142456054,0
0.8180311203002929,0.4259199142456054,0
0.8094594955444335,0.4351484298706055,0
0.7977607727050781,0.4351484298706055,0
0.8018943786621093,0.4368925094604492,0
0.8096820831298828,0.4368925094604492,0
0.8127033233642578,0.4306468963623047,0
0.8127651214599609,0.4306468963623047,0
0.8062202453613281,0.4357938766479492,0
0.7999958038330078,0.4357938766479492,0
0.8008197784423828,0.4291860580444336,0
0.8216932296752929,0.4291860580444336,0
0.8125802993774414,0.4376111984252929,0
0.8004587173461913,0.4376111984252929,0
0.8041179656982421,0.4386234283447266,0
0.8114742279052735,0.4386234283447266,0
0.8140846252441406,0.4316614151000976,0
0.8135667800903320,0.4316614151000976,0
0.8066436767578125,0.4360198974609375,0
0.7999929428100586,0.4360198974609375,0
0.8004901885986327,0.4286533355712890,0
0.8208686828613281,0.4286533355712890,0
0.8112533569335937,0.4363735198974609,0
0.7987501144409179,0.4363735198974609,0
0.8021289825439453,0.4369382858276367,0
0.8091447830200195,0.4369382858276367,0
0.8116264343261719,0.4296895980834961,0
0.8110445022583007,0.4296895980834961,0
0.8041437149047851,0.4340675354003906,0
0.7974781036376953,0.4340675354003906,0
0.7981035232543945,0.4268646240234375,0
0.8187795639038086,0.4268646240234375,0
0.8095401763916016,0.4351106643676758,0
0.7973230361938476,0.4351106643676758,0
0.8010869979858398,0.4362979888916015,0
0.8086086273193359,0.4362979888916015,0
0.8114118576049805,0.4296924591064453,0
0.8112167358398438,0.4296924591064453,0
0.8046403884887695,0.4346282958984375,0
0.7983816146850585,0.4346282958984375,0
0.7992130279541015,0.4278310775756836,0
0.8200962066650390,0.4278310775756836,0
0.8110553741455078,0.4364061355590820,0
0.7990619659423828,0.4364061355590820,0
0.8029924392700195,0.4378978729248047,0
0.8105432510375976,0.4378978729248047,0
0.8133934020996093,0.4314857482910156,0
0.8131610870361328,0.4314857482910156,0
0.8065773010253906,0.4362699508666992,0
0.8001663208007812,0.4362699508666992,0
0.8008964538574218,0.4290676116943359,0
0.8214036941528320,0.4290676116943359,0
0.8118707656860351,0.4367843627929687,0
0.7991043090820312,0.4367843627929687,0
0.8020248413085938,0.4368495941162109,0
0.8084644317626953,0.4368495941162109,0
0.8099641799926758,0.4280313491821289,0
0.8077262878417969,0.4280313491821289,0
0.7992136001586914,0.4294303894042968,0
0.7904125213623047,0.4294303894042968,0
0.7889396667480468,0.4180372238159180,0
0.8068788528442382,0.4180372238159180,0
0.7947315216064453,0.4214790344238281,0
0.7917280197143555,0.4125486373901367,0
0.7883056640625000,0.4061210632324219,0
0.7736091613769531,0.4067756652832031,0
0.7736091613769531,0.4035907745361328,0
0.7792396545410156,0.4097780227661132,0
0.7782463073730469,0.4069576263427734,0
0.7829446792602539,0.4001260757446289,0
0.7978179931640624,0.4088041305541992,0
0.7915391921997070,0.4186403274536133,0
0.7932495117187500,0.4073913574218750,0
0.7898208618164062,0.4232362747192382,0
0.7955675125122070,0.4123638153076172,0
0.8090669631958007,0.4181447982788086,0
0.8006652832031250,0.4283826828002930,0
0.8016866683959961,0.4227916717529297,0
0.8056131362915039,0.4230216979980468,0
0.8060262680053710,0.4261224746704101,0
0.7964996337890625,0.4244785308837891,0
0.8051845550537109,0.4326244354248047,0
0.8039909362792969,0.4335359573364257,0
0.7996850967407226,0.4289463043212891,0
0.8193431854248047,0.4280948638916016,0
0.8000839233398437,0.4360479354858398,0
0.8110593795776367,0.4215963363647461,0
0.8042593002319336,0.4281103134155274,0
0.7978277206420898,0.4349367141723633,0
0.8195858001708984,0.4273984909057617,0
0.8063100814819336,0.4307796478271484,0
0.8099779129028321,0.4292461395263672,0
0.8116258621215821,0.4279003143310547,0
0.7986923217773437,0.4350511550903320,0
0.8114147186279297,0.4275587081909180,0
0.8075609207153320,0.4343141555786132,0
0.7976091384887695,0.4260486602783203,0
0.8077331542968750,0.4338838577270508,0
0.8076690673828125,0.4338838577270508,0
0.8063798904418945,0.4345750808715820,0
0.8085239410400390,0.4284061431884765,0
0.7980365753173828,0.4255399703979492,0
0.8053373336791992,0.4325918197631836,0
0.7957603454589843,0.4373508453369140,0
0.8066190719604492,0.4196714401245117,0
0.7941724777221679,0.4330959320068359,0
0.8066757202148437,0.4345985412597656,0
0.8091773986816406,0.4333173751831055,0
0.7988571166992188,0.4262729644775390,0
0.8071420669555663,0.4211059570312500,0
0.7945552825927734,0.4343902587890625,0
0.8045442581176757,0.4297039031982422,0
0.8091018676757812,0.4298801422119141,0
0.8207679748535156,0.4285503387451172,0
0.7985504150390624,0.4355575561523438,0
0.8117443084716797,0.4313146591186524,0
0.8047634124755859,0.4356061935424805,0
0.7974969863891601,0.4356061935424805,0
0.8048658370971680,0.4267919540405273,0
0.8048658370971680,0.4295511245727539,0
0.8076210021972656,0.4263296127319336,0
0.7969293594360352,0.4432273864746094,0
0.8037643432617188,0.4141542434692383,0
0.7999311447143554,0.4239566802978516,0
0.7815073013305663,0.4236677169799805,0
0.7929193496704101,0.4210773468017578,0
0.7830476760864258,0.4097150802612304,0
0.7838979721069336,0.3978784561157226,0
0.7691900253295898,0.4189201354980469,0
0.7755111694335938,0.4087005615234375,0
0.7739805221557617,0.4005455017089843,0
0.7648618698120117,0.3968187332153320,0
0.7733076095581054,0.4059642791748047,0
0.7650953292846679,0.4059642791748047,0
0.7719778060913086,0.4043506622314453,0
0.7806758880615234,0.4121360778808594,0
0.7770841598510742,0.4176876068115234,0
0.7899902343749999,0.4109544754028320,0
0.7934875488281250,0.4225261688232422,0
0.7934875488281250,0.4236333847045898,0
0.7924255371093750,0.4199518203735351,0
0.7992433547973633,0.4212799072265625,0
0.8108659744262695,0.4203128814697266,0
0.7899129867553710,0.4284158706665039,0
0.7930469512939453,0.4218091964721680,0
0.7974786758422852,0.4234308242797851,0
0.7927814483642578,0.4353183746337890,0
0.8143867492675781,0.4222829818725586,0
0.7916479110717773,0.4315572738647461,0
0.8052515029907227,0.4249969482421875,0
0.8070957183837890,0.4323205947875977,0
0.8073566436767577,0.4323205947875977,0
0.8007923126220703,0.4247880935668945,0
0.8007923126220703,0.4328968048095703,0
0.7951383590698242,0.4241237640380859,0
0.8011928558349609,0.4332532882690430,0
0.8060182571411133,0.4255874633789062,0
0.7965631484985352,0.4255874633789062,0
0.8068296432495117,0.4321380615234375,0
0.8068296432495117,0.4278196334838867,0
0.7994825363159179,0.4317621231079101,0
0.7931945800781249,0.4355346679687500,0
0.8140136718750000,0.4225210189819336,0
0.7902385711669921,0.4307315826416016,0
0.8038736343383789,0.4238393783569336,0
0.7916931152343750,0.4305988311767578,0
0.8033226013183593,0.4266088485717773,0
0.7906122207641602,0.4309879302978515,0
0.7927162170410156,0.4220106124877930,0
0.7989463806152344,0.4316093444824219,0
0.8045888900756836,0.4246210098266601,0
0.8154458999633789,0.4246210098266601,0
0.8063438415527343,0.4319429397583008,0
0.7965476989746093,0.4244316101074219,0
0.8005428314208984,0.4261676788330078,0
0.7951520919799805,0.4370630264282226,0
0.8164781570434571,0.4242147445678711,0
0.8063770294189453,0.4331766128540039,0
0.8069812774658203,0.4272857666015625,0
0.8084884643554687,0.4336429595947265,0
0.8086675643920899,0.4193143844604492,0
0.8013553619384766,0.4264183044433594,0
0.8013553619384766,0.4331909179687500,0
0.7938674926757813,0.4225513458251953,0
0.7983610153198242,0.4241535186767578,0
0.8001600265502929,0.4203077316284179,0
0.7962066650390625,0.4150119781494140,0
0.7799079895019531,0.4223836898803711,0
0.7794576644897461,0.4081214904785156,0
0.7793420791625977,0.4095331192016601,0
0.7662202835083007,0.4103467941284180,0
0.7709392547607422,0.3872171401977539,0
0.7554845809936523,0.4016555786132812,0
0.7667587280273437,0.4007246017456055,0
0.7685554504394531,0.3999366760253906,0
0.7603008270263671,0.3938941955566406,0
0.7722753524780274,0.3933506011962891,0
0.7616512298583984,0.4063631057739258,0
0.7725906372070312,0.4051998138427734,0
0.7815542221069336,0.4129812240600586,0
0.7770893096923828,0.4177642822265625,0
0.7908473968505859,0.4050876617431641,0
0.7902900695800781,0.4156196594238281,0
0.7808698654174805,0.4219980239868164,0
0.7830791473388672,0.4141353607177734,0
0.7894569396972656,0.4243034362792968,0
0.7969900131225586,0.4183771133422852,0
0.7992078781127929,0.4197366714477539,0
0.7869026184082031,0.4270362854003906,0
0.7951040267944336,0.4220941543579101,0
0.7897579193115234,0.4284822463989258,0
0.7897579193115234,0.4196731567382813,0
0.7880699157714843,0.4289291381835937,0
0.8127365112304688,0.4225067138671875,0
0.8038284301757812,0.4265155792236328,0
0.8017221450805664,0.4265155792236328,0
0.8063329696655274,0.4300987243652344,0
0.7879039764404296,0.4209428787231445,0
0.7966558456420898,0.4306074142456054,0
0.7966558456420898,0.4238262176513672,0
0.8025587081909179,0.4293622970581055,0
0.7927745819091797,0.4305078506469727,0
0.8010961532592773,0.4305078506469727,0
0.8007184982299804,0.4257488250732422,0
0.7925846099853515,0.4257488250732422,0
0.7964939117431641,0.4296998977661133,0
0.7890512466430664,0.4296998977661133,0
0.7899782180786132,0.4198064804077148,0
0.8109020233154297,0.4198064804077148,0
0.8004289627075195,0.4285543441772461,0
0.7872247695922852,0.4285543441772461,0
0.7920158386230468,0.4300683975219726,0
0.8004673004150390,0.4300683975219726,0
0.8031063079833984,0.4257808685302734,0
0.8010097503662109,0.4257808685302734,0
0.7972503662109375,0.4304775238037109,0
0.8008049011230468,0.4304775238037109,0
0.7914424896240234,0.4207643508911132,0
0.8124601364135742,0.4207643508911132,0
0.8021432876586914,0.4300300598144531,0
0.7891204833984374,0.4300300598144531,0
0.7942874908447265,0.4318805694580078,0
0.8031108856201171,0.4318805694580078,0
0.8053928375244140,0.4280267715454101,0
0.8035491943359375,0.4280267715454101,0
0.7999746322631835,0.4327291488647461,0
0.7929422378540039,0.4327291488647461,0
0.7939813613891601,0.4231218338012695,0
0.8150339126586914,0.4231218338012695,0
0.8046535491943360,0.4322015762329102,0
0.7915987014770508,0.4322015762329102,0
0.7966621398925781,0.4334884643554687,0
0.8049076080322265,0.4334884643554687,0
0.8067352294921875,0.4292724609375000,0
0.8041740417480469,0.4292724609375000,0
0.8002681732177734,0.4323228836059570,0
0.7929399490356445,0.4323228836059570,0
0.7923803329467773,0.4212839126586914,0
0.8106885910034179,0.4212839126586914,0
0.7991855621337890,0.4274963378906250,0
0.7849937438964844,0.4274963378906250,0
0.7876842498779296,0.4252950668334961,0
0.7936941146850586,0.4252950668334961,0
0.7928564071655273,0.4174627304077148,0
0.7888401031494140,0.4174627304077148,0
0.7831272125244141,0.4171955108642578,0
0.7743106842041015,0.4171955108642578,0
0.7715984344482422,0.4054510116577149,0
0.7664983749389648,0.4105121612548828,0
0.7804738998413085,0.4060169219970703,0
0.7836381912231445,0.4175056457519531,0
0.7770641326904296,0.4175056457519531,0
0.7854915618896484,0.4223218917846679,0
0.7854915618896484,0.4151309967041015,0
0.7947240829467773,0.4222051620483399,0
0.7869083404541015,0.4258197784423828,0
0.7963525772094726,0.4258197784423828,0
0.7993297576904297,0.4239057540893554,0
0.7979581832885742,0.4239057540893554,0
0.7956653594970703,0.4291254043579101,0
0.7899404525756836,0.4291254043579101,0
0.7910648345947265,0.4208856582641601,0
0.8112047195434570,0.4208856582641601,0
0.8019355773925781,0.4303693771362305,0
0.7900354385375976,0.4303693771362305,0
0.7953741073608398,0.4327548980712890,0
0.8042312622070312,0.4327548980712890,0
0.8065704345703125,0.4297977447509765,0
0.8046072006225585,0.4297977447509765,0
0.8019332885742188,0.4342374801635742,0
0.7957397460937500,0.4342374801635742,0
0.7963331222534179,0.4250925064086914,0
0.8159019470214843,0.4250925064086914,0
0.8061990737915039,0.4337596893310547,0
0.7937639236450195,0.4337596893310547,0
0.7988645553588867,0.4353984832763672,0
0.8072708129882812,0.4353984832763672,0
0.8091848373413085,0.4320201873779297,0
0.8067821502685547,0.4320201873779297,0
0.8039068222045899,0.4357303619384765,0
0.7973974227905273,0.4357303619384765,0
0.7975084304809570,0.4259696960449219,0
0.8167488098144531,0.4259696960449219,0
0.8066694259643554,0.4340011596679688,0
0.7939241409301757,0.4340011596679688,0
0.7986814498901367,0.4351724624633789,0
0.8067329406738281,0.4351724624633789,0
0.8083419799804688,0.4314348220825195,0
0.8057504653930664,0.4314348220825195,0
0.8027961730957031,0.4346986770629883,0
0.7960029602050781,0.4346986770629883,0
0.7959766387939453,0.4246788024902344,0
0.8150939941406250,0.4246788024902344,0
0.8051256179809571,0.4327892303466797,0
0.7922904968261718,0.4327892303466797,0
0.7970941543579101,0.4340829849243164,0
0.8055398941040038,0.4340829849243164,0
0.8072353363037109,0.4307533264160156,0
0.8048131942749023,0.4307533264160156,0
0.8023035049438476,0.4344520568847656,0
0.7958221435546875,0.4344520568847656,0
0.7960229873657226,0.4249271392822265,0
0.8154521942138672,0.4249271392822265,0
0.8058036804199219,0.4333974838256836,0
0.7932277679443359,0.4333974838256836,0
0.7984073638916015,0.4351295471191406,0
0.8069961547851562,0.4351295471191406,0
0.8087900161743163,0.4322805404663086,0
0.8065126419067382,0.4322805404663086,0
0.8042387008666992,0.4360610961914063,0
0.7978231430053710,0.4360610961914063,0
0.7979833602905273,0.4267095565795898,0
0.8174806594848633,0.4267095565795898,0
0.8078252792358398,0.4351455688476563,0
0.7952333450317383,0.4351455688476563,0
0.8001611709594726,0.4366092681884766,0
0.8085662841796875,0.4366092681884766,0
0.8100860595703124,0.4333345413208008,0
0.8072731018066406,0.4333345413208008,0
0.8045465469360351,0.4359878540039062,0
0.7971330642700195,0.4359878540039062,0
0.7963176727294922,0.4249380111694336,0
0.8144519805908202,0.4249380111694336,0
0.8035715103149413,0.4310285568237305,0
0.7924695968627929,0.4296838760375977,0
0.7990802764892578,0.4296838760375977,0
0.7989709854125976,0.4237415313720703,0
0.7946714401245117,0.4237415313720703,0
0.7909423828125000,0.4242061614990234,0
0.7827123641967774,0.4242061614990234,0
0.7815244674682617,0.4124427795410156,0
0.7999437332153320,0.4124427795410156,0
0.7896211624145507,0.4196336746215820,0
0.7766939163208008,0.4196336746215820,0
0.7820520401000977,0.4216506958007812,0
0.7912490844726562,0.4216506958007812,0
0.7938892364501953,0.4206201553344727,0
0.7926795959472656,0.4206201553344727,0
0.7918178558349609,0.4260892868041992,0
0.7863653182983398,0.4260892868041992,0
0.7875726699829101,0.4185773849487305,0
0.8082241058349610,0.4185773849487305,0
0.7994281768798828,0.4285446166992187,0
0.7877048492431641,0.4285446166992187,0
0.7937587738037110,0.4316837310791016,0
0.8030851364135742,0.4316837310791016,0
0.8055164337158203,0.4304449081420899,0
0.8038227081298828,0.4304449081420899,0
0.8027503967285156,0.4349126815795898,0
0.7966049194335937,0.4349126815795898,0
0.7971158981323242,0.4263273239135742,0
0.8169862747192382,0.4263273239135742,0
0.8077417373657226,0.4352073669433594,0
0.7953168869018554,0.4352073669433594,0
0.8007917404174805,0.4373731613159180,0
0.8095842361450195,0.4373731613159180,0
0.8115091323852539,0.4355976104736328,0
0.8093725204467773,0.4355976104736328,0
0.8079065322875977,0.4390279769897461,0
0.8011711120605468,0.4390279769897461,0
0.8012672424316406,0.4296861648559570,0
0.8206335067749023,0.4296861648559570,0
0.8111600875854492,0.4377571105957031,0
0.7982162475585938,0.4377571105957031,0
0.8031675338745117,0.4392602920532226,0
0.8116516113281250,0.4392602920532226,0
0.8131822586059571,0.4370046615600586,0
0.8105890274047851,0.4370046615600586,0
0.8088552474975585,0.4397111892700195,0
0.8016775131225585,0.4397111892700195,0
0.8015756607055664,0.4298069000244141,0
0.8205785751342773,0.4298069000244141,0
0.8110021591186524,0.4373245239257812,0
0.7977996826171875,0.4373245239257812,0
0.8021633148193359,0.4383401870727539,0
0.8104637145996093,0.4383401870727539,0
0.8115795135498046,0.4359031677246094,0
0.8088294982910156,0.4359031677246094,0
0.8071334838867187,0.4382268905639649,0
0.7996742248535156,0.4382268905639649,0
0.7997159957885742,0.4282625198364258,0
0.8187131881713867,0.4282625198364258,0
0.8092786788940429,0.4359489440917969,0
0.7961008071899414,0.4359489440917969,0
0.8005691528320312,0.4372186660766602,0
0.8091911315917969,0.4372186660766602,0
0.8106817245483399,0.4354185104370117,0
0.8081668853759766,0.4354185104370117,0
0.8069126129150390,0.4381977081298828,0
0.7996599197387695,0.4381977081298828,0
0.7999248504638672,0.4286281585693359,0
0.8192367553710938,0.4286281585693359,0
0.8101633071899413,0.4366201400756836,0
0.7972475051879883,0.4366201400756836,0
0.8018846511840820,0.4382526397705078,0
0.8106828689575195,0.4382526397705078,0
0.8122295379638672,0.4368982315063477,0
0.8098257064819335,0.4368982315063477,0
0.8086744308471679,0.4396345138549805,0
0.8013925552368164,0.4396345138549805,0
0.8018268585205078,0.4301050186157226,0
0.8208246231079102,0.4301050186157226,0
0.8115308761596679,0.4376232147216797,0
0.7982042312622070,0.4376232147216797,0
0.8022251129150391,0.4382326126098633,0
0.8101558685302734,0.4382326126098633,0
0.8104969024658203,0.4351804733276367,0
0.8067495346069335,0.4351804733276367,0
0.8041442871093750,0.4351593017578125,0
0.7946834564208984,0.4351593017578125,0
0.7927934646606445,0.4218795776367187,0
0.8094051361083984,0.4218795776367187,0
0.7974803924560546,0.4248847961425781,0
0.7813070297241210,0.4248847961425781,0
0.7826202392578124,0.4205326080322265,0
0.7877414703369140,0.4205326080322265,0
0.7856529235839843,0.4129526138305664,0
0.7798988342285156,0.4129526138305664,0
0.7760816574096679,0.4105236053466797,0
0.7664308547973633,0.4105236053466797,0
0.7651456832885742,0.3983785629272461,0
0.7832571029663086,0.3983785629272461,0
0.7737115859985352,0.4056632995605469,0
0.7612392425537109,0.4056632995605469,0
0.7669080734252930,0.4090959548950195,0
0.7773273468017577,0.4090959548950195,0
0.7806558609008789,0.4114683151245117,0
0.7804847717285156,0.4114683151245117,0
0.7818111419677735,0.4180223464965820,0
0.7764581680297852,0.4180223464965820,0
0.7785621643066406,0.4116617202758789,0
0.7994047164916992,0.4116617202758789,0
0.7917028427124023,0.4219516754150390,0
0.7799222946166992,0.4219516754150390,0
0.7856391906738281,0.4254043579101562,0
0.7955554962158203,0.4254043579101562,0
0.7977870941162110,0.4259141921997070,0
0.7960681915283203,0.4259141921997070,0
0.7962312698364258,0.4296112060546875,0
0.7893499374389649,0.4296112060546875,0
0.7904548645019531,0.4213588714599609,0
0.8101215362548828,0.4213588714599609,0
0.8014720916748047,0.4299482345581054,0
0.7888629913330077,0.4299482345581054,0
0.7938617706298828,0.4320442199707031,0
0.8030467987060547,0.4320442199707031,0
0.8046861648559570,0.4315710067749023,0
0.8023538589477539,0.4315710067749023,0
0.8018886566162109,0.4343461990356445,0
0.7944929122924804,0.4343461990356445,0
0.7949335098266601,0.4251560211181640,0
0.8142328262329102,0.4251560211181640,0
