REDsignal,IRsignal,synced
0.7102203369140625,0.3075153350830078,0
0.6967414855957031,0.3209815979003906,0
0.7023244857788086,0.3227914810180664,0
0.7096109390258789,0.3227914810180664,0
0.7121978759765625,0.3222644805908203,0
0.7112834930419921,0.3222644805908203,0
0.7121017456054687,0.3264661788940429,0
0.7012201309204101,0.3264661788940429,0
0.7017379760742187,0.3146049499511719,0
0.7239412307739258,0.3146049499511719,0
0.7122591018676757,0.3225786209106445,0
0.6985485076904296,0.3225786209106445,0
0.7042001724243164,0.3245653152465820,0
0.7114248275756836,0.3245653152465820,0
0.7138172149658203,0.3231462478637695,0
0.7127889633178711,0.3231462478637695,0
0.7124628067016602,0.3264822006225586,0
0.7009563446044922,0.3264822006225586,0
0.7004837036132813,0.3131584167480468,0
0.7213039398193359,0.3131584167480468,0
0.7082994461059570,0.3181320190429687,0
0.6925752639770507,0.3181320190429687,0
0.6958677291870117,0.3167821884155274,0
0.7005666732788086,0.3167821884155274,0
0.7003669738769531,0.3100851058959961,0
0.6963180541992188,0.3100851058959961,0
0.6925947189331054,0.3090133666992188,0
0.6791215896606445,0.3090133666992188,0
0.6770793914794921,0.2934654235839844,0
0.6971609115600585,0.2934654235839844,0
0.6847354888916015,0.2988676071166992,0
0.6700681686401367,0.2988676071166992,0
0.6745359420776367,0.3001653671264649,0
0.6810934066772460,0.3001653671264649,0
0.6837272644042969,0.2976425170898437,0
0.6832368850708007,0.2976425170898437,0
0.6822704315185547,0.3017927169799804,0
0.6720886230468750,0.3017927169799804,0
0.6727701187133789,0.2908853530883789,0
0.6951210021972656,0.2908853530883789,0
0.6849008560180664,0.2996166229248047,0
0.6720188140869140,0.2996166229248047,0
0.6777608871459960,0.3034252166748047,0
0.6855073928833008,0.3034252166748047,0
0.6891477584838867,0.3021274566650390,0
0.6897468566894531,0.3021274566650390,0
0.6888942718505859,0.3075668334960938,0
0.6796388626098633,0.3075668334960938,0
0.6808147430419922,0.2978096008300781,0
0.7035181045532226,0.2978096008300781,0
0.6939514160156249,0.3070072174072265,0
0.6813463211059571,0.3070072174072265,0
0.6870225906372071,0.3111911773681640,0
0.6945350646972656,0.3111911773681640,0
0.6983791351318359,0.3092885971069336,0
0.6990589141845703,0.3092885971069336,0
0.6973743438720703,0.3144384384155273,0
0.6881052017211914,0.3144384384155273,0
0.6889160156249999,0.3045616149902344,0
0.7113704681396484,0.3045616149902344,0
0.7018564224243163,0.3134479522705078,0
0.6891117095947266,0.3134479522705078,0
0.6942775726318359,0.3172817230224609,0
0.7015382766723632,0.3172817230224609,0
0.7051877975463867,0.3143165588378906,0
0.7055162429809571,0.3143165588378906,0
0.7028223037719726,0.3190040588378906,0
0.6933935165405273,0.3190040588378906,0
0.6939376831054688,0.3085744857788086,0
0.7160213470458984,0.3085744857788086,0
0.7061285018920899,0.3168079376220703,0
0.6930707931518555,0.3168079376220703,0
0.6978240966796875,0.3200998306274414,0
0.7046110153198242,0.3200998306274414,0
0.7080934524536132,0.3160840988159180,0
0.7083354949951172,0.3160840988159180,0
0.7046676635742187,0.3204780578613281,0
0.6952011108398437,0.3204780578613281,0
0.6955158233642578,0.3099123001098633,0
0.7174764633178711,0.3099123001098633,0
0.7078050613403321,0.3179752349853516,0
0.6946392059326172,0.3179752349853516,0
0.6989570617675781,0.3210525512695312,0
0.7055625915527344,0.3210525512695312,0
0.7091485977172851,0.3162437438964844,0
0.7095108032226562,0.3162437438964844,0
0.7049594879150390,0.3207527160644531,0
0.6955907821655273,0.3207527160644531,0
0.6961166381835937,0.3103912353515625,0
0.7180761337280274,0.3103912353515625,0
0.7085140228271484,0.3184724807739258,0
0.6953990936279296,0.3184724807739258,0
0.6996202468872070,0.3215612411499023,0
0.7063711166381835,0.3215612411499023,0
0.7100635528564453,0.3163644790649414,0
0.7106317520141602,0.3163644790649414,0
0.7056140899658203,0.3212276458740234,0
0.6965967178344726,0.3212276458740234,0
0.6970390319824219,0.3114171981811523,0
0.7191701889038086,0.3114171981811523,0
0.7098798751831055,0.3196500778198242,0
0.6970407485961914,0.3196500778198242,0
0.7011823654174805,0.3229591369628906,0
0.7079555511474609,0.3229591369628906,0
0.7117401123046875,0.3171775817871094,0
0.7126081466674804,0.3171775817871094,0
0.7069553375244141,0.3224189758300781,0
0.6981056213378906,0.3224189758300781,0
0.6987682342529297,0.3130016326904297,0
0.7211488723754883,0.3130016326904297,0
0.7118968963623047,0.3213947296142578,0
0.6990709304809570,0.3213947296142578,0
0.7030975341796875,0.3246002197265625,0
0.7099931716918945,0.3246002197265625,0
0.7138303756713867,0.3182430267333984,0
0.7147436141967773,0.3182430267333984,0
0.7085803985595703,0.3238752365112305,0
0.6998771667480469,0.3238752365112305,0
0.7005655288696289,0.3145671844482422,0
0.7229518890380859,0.3145671844482422,0
0.7136999130249023,0.3228475570678711,0
0.7007978439331054,0.3228475570678711,0
0.7044559478759765,0.3254962921142578,0
0.7110214233398438,0.3254962921142578,0
0.7141473770141601,0.3174602508544922,0
0.7144100189208984,0.3174602508544922,0
0.7066165924072265,0.3216270446777343,0
0.6965108871459961,0.3216270446777343,0
0.6952983856201171,0.3092628479003906,0
0.7154943466186523,0.3092628479003906,0
0.7039215087890625,0.3134382247924805,0
0.6880519866943359,0.3134382247924805,0
0.6882905960083008,0.3103969573974609,0
0.6912981033325195,0.3103969573974609,0
0.6919692993164063,0.2974760055541992,0
0.6903596878051758,0.2974760055541992,0
0.6809549331665039,0.3001785278320312,0
0.6708526611328125,0.3001785278320312,0
0.6704618453979492,0.2893260955810547,0
0.6922039031982422,0.2893260955810547,0
0.6825239181518554,0.2970130920410156,0
0.6695331573486328,0.2970130920410156,0
0.6731237411499024,0.2993963241577148,0
0.6799827575683594,0.2993963241577148,0
0.6837272644042969,0.2913305282592774,0
0.6853048324584960,0.2913305282592774,0
0.6779743194580078,0.2985025405883789,0
0.6700756072998046,0.2985025405883789,0
0.6714271545410156,0.2907325744628906,0
0.6947525024414062,0.2907325744628906,0
0.6860206604003906,0.3005504608154297,0
0.6742200851440430,0.3005504608154297,0
0.6786352157592773,0.3041948318481445,0
0.6862787246704102,0.3041948318481445,0
0.6907928466796874,0.2969976425170898,0
0.6931463241577148,0.2969976425170898,0
0.6859216690063477,0.3053043365478516,0
0.6785625457763672,0.3053043365478516,0
0.6802579879760742,0.2982067108154297,0
0.7038333892822265,0.2982067108154297,0
0.6951982498168945,0.3082540512084961,0
0.6833621978759765,0.3082540512084961,0
0.6876829147338867,0.3115568161010742,0
0.6952262878417969,0.3115568161010742,0
0.6995075225830077,0.3036809921264648,0
0.7019056320190430,0.3036809921264648,0
0.6941379547119141,0.3120437622070312,0
0.6866706848144531,0.3120437622070312,0
0.6882127761840821,0.3050313949584961,0
0.6996213912963867,0.3097028732299805,0
0.7022930145263672,0.3087318420410156,0
0.7160848617553711,0.3172250747680664,0
0.7071063995361327,0.3151662826538086,0
0.6926044464111328,0.3151662826538086,0
0.6955684661865235,0.3090396881103515,0
0.7056678771972656,0.3090396881103515,0
0.7041440963745117,0.3165819168090820,0
0.6933139801025391,0.3165819168090820,0
0.7041784286499023,0.3135240554809570,0
0.7067087173461913,0.3135240554809570,0
0.7055974960327148,0.3114789962768554,0
0.7192714691162109,0.3114789962768554,0
0.7099233627319336,0.3172428131103516,0
0.6951198577880859,0.3172428131103516,0
0.6977731704711914,0.3108776092529297,0
0.7012235641479492,0.3108776092529297,0
0.7058315277099609,0.3179975509643554,0
0.6951015472412109,0.3179975509643554,0
0.7059471130371093,0.3151062011718750,0
0.6983339309692382,0.3151062011718750,0
0.7065822601318359,0.3123321533203125,0
0.7202814102172851,0.3123321533203125,0
0.7107084274291992,0.3177183151245117,0
0.6958442687988281,0.3177183151245117,0
0.6983276367187500,0.3114372253417969,0
0.7079492568969726,0.3114372253417969,0
0.7063808441162109,0.3184490203857422,0
0.6960731506347656,0.3184490203857422,0
0.7069267272949219,0.3160429000854492,0
0.6990772247314453,0.3160429000854492,0
0.7070623397827148,0.3129049301147461,0
0.7210824966430663,0.3129049301147461,0
0.7115489959716796,0.3182962417602539,0
0.6966945648193359,0.3182962417602539,0
0.6993484497070312,0.3124814987182617,0
0.7026311874389648,0.3124814987182617,0
0.7076139450073242,0.3195848464965820,0
0.6977886199951172,0.3195848464965820,0
0.7087377548217774,0.3178831100463867,0
0.7008539199829101,0.3178831100463867,0
0.7086519241333008,0.3143217086791992,0
0.7228631973266602,0.3143217086791992,0
0.7132221221923828,0.3197896957397461,0
0.6983510971069335,0.3197896957397461,0
0.7012727737426757,0.3141717910766602,0
0.7106924057006836,0.3141717910766602,0
0.7095233917236328,0.3214067459106445,0
0.7002182006835938,0.3214067459106445,0
0.7110866546630860,0.3200517654418945,0
0.7029447555541992,0.3200517654418945,0
0.7106008529663086,0.3160274505615234,0
0.7250078201293945,0.3160274505615234,0
0.7152288436889648,0.3214376449584961,0
0.7003229141235351,0.3214376449584961,0
0.7031410217285156,0.3159387588500976,0
0.7126379013061523,0.3159387588500976,0
0.7115198135375976,0.3230232238769531,0
0.7026414871215820,0.3230232238769531,0
0.7132061004638671,0.3220567703247070,0
0.7049577713012695,0.3220567703247070,0
0.7121286392211914,0.3172777175903320,0
0.7266185760498046,0.3172777175903320,0
0.7161363601684571,0.3221511840820312,0
0.7006467819213867,0.3221511840820312,0
0.7029401779174804,0.3153968811035156,0
0.7112394332885742,0.3153968811035156,0
0.7086931228637695,0.3200168609619141,0
0.6982097625732422,0.3200168609619141,0
0.7065176010131836,0.3153900146484375,0
0.6956027984619141,0.3153900146484375,0
0.6994365692138672,0.3051309585571289,0
0.7104887008666992,0.3051309585571289,0
0.6963363647460937,0.3044288635253906,0
0.6779960632324219,0.3044288635253906,0
0.6784263610839844,0.2945222854614258,0
0.6853981018066406,0.2945222854614258,0
0.6827962875366210,0.2987108230590820,0
0.6735666275024413,0.2987108230590820,0
0.6829479217529296,0.2968523025512695,0
0.6737995147705078,0.2968523025512695,0
0.6800983428955077,0.2907646179199219,0
0.6953166961669922,0.2907646179199219,0
0.6845277786254883,0.2962223052978515,0
0.6697179794311523,0.2962223052978515,0
0.6730316162109374,0.2913110733032226,0
0.6824741363525391,0.2913110733032226,0
0.6820896148681640,0.2988739013671875,0
0.6750011444091797,0.2988739013671875,0
0.6856287002563476,0.2996698379516601,0
0.6776115417480468,0.2996698379516601,0
0.6845930099487304,0.2948741912841797,0
0.7011257171630859,0.2948741912841797,0
0.6907287597656250,0.3019386291503906,0
0.6767463684082031,0.3019386291503906,0
0.6808679580688476,0.2983692169189453,0
0.6909765243530274,0.2983692169189453,0
0.6910394668579102,0.3065877914428711,0
0.6847801208496094,0.3065877914428711,0
0.6953636169433594,0.3080354690551758,0
0.6874145507812500,0.3080354690551758,0
0.6941528320312500,0.3028535842895508,0
0.7111232757568359,0.3028535842895508,0
0.7002204895019531,0.3097955703735352,0
0.6861047744750977,0.3097955703735352,0
0.6901502609252930,0.3062210083007812,0
0.6998674392700195,0.3062210083007812,0
0.6998250961303710,0.3139904022216797,0
0.6937740325927734,0.3139904022216797,0
0.7039049148559570,0.3151382446289062,0
0.6954809188842773,0.3151382446289062,0
0.7015165328979492,0.3090562820434570,0
0.7185293197631836,0.3090562820434570,0
0.7068311691284179,0.3155055999755859,0
0.6924116134643554,0.3155055999755859,0
0.6960393905639648,0.3113622665405273,0
0.7052146911621093,0.3113622665405273,0
0.7049377441406249,0.3181234359741211,0
0.6988134384155273,0.3181234359741211,0
0.7081220626831054,0.3187711715698242,0
0.6990669250488281,0.3187711715698242,0
0.7044588088989258,0.3114458084106445,0
0.7215728759765625,0.3114458084106445,0
0.7091835021972656,0.3175643920898437,0
0.6945911407470703,0.3175643920898437,0
0.6980260848999024,0.3132802963256836,0
0.7069524765014649,0.3132802963256836,0
0.7065868377685547,0.3195316314697266,0
0.7006994247436523,0.3195316314697266,0
0.7094696044921874,0.3200580596923828,0
0.7002216339111328,0.3200580596923828,0
0.7049978256225585,0.3119647979736328,0
0.7224208831787109,0.3119647979736328,0
0.7096349716186523,0.3181114196777344,0
0.6951232910156250,0.3181114196777344,0
0.6986858367919921,0.3141408920288086,0
0.7074245452880860,0.3141408920288086,0
0.7072174072265625,0.3200448989868164,0
0.7017133712768554,0.3200448989868164,0
0.7101997375488281,0.3209146499633789,0
0.7008241653442383,0.3209146499633789,0
0.7050464630126952,0.3123950958251953,0
0.7231029510498047,0.3123950958251953,0
0.7102575302124023,0.3188724517822266,0
0.6958774566650391,0.3188724517822266,0
0.6995990753173827,0.3154775619506836,0
0.7082862854003906,0.3154775619506836,0
0.7084253311157226,0.3212047576904297,0
0.7035369873046875,0.3212047576904297,0
0.7116228103637695,0.3225397109985351,0
0.7020709991455077,0.3225397109985351,0
0.7060918807983398,0.3136356353759766,0
0.7246026992797852,0.3136356353759766,0
0.7117435455322265,0.3203905105590820,0
0.6974864959716797,0.3203905105590820,0
0.7014467239379882,0.3174247741699219,0
0.7100383758544921,0.3174247741699219,0
0.7104137420654296,0.3228790283203125,0
0.7059825897216797,0.3228790283203125,0
0.7136489868164062,0.3244783401489258,0
0.7037738800048828,0.3244783401489258,0
0.7073535919189453,0.3151920318603516,0
0.7262992858886719,0.3151920318603516,0
0.7133674621582031,0.3220247268676757,0
0.6993804931640625,0.3220247268676757,0
0.7033716201782226,0.3194915771484375,0
0.7117452621459961,0.3194915771484375,0
0.7124959945678710,0.3244817733764648,0
0.7084499359130859,0.3244817733764648,0
0.7155641555786133,0.3263420104980468,0
0.7053468704223632,0.3263420104980468,0
0.7085397720336913,0.3165807723999023,0
0.7279489517211913,0.3165807723999023,0
0.7149158477783203,0.3235055923461914,0
0.7009008407592773,0.3235055923461914,0
0.7048564910888672,0.3209627151489258,0
0.7126911163330077,0.3209627151489258,0
0.7132198333740234,0.3246871948242188,0
0.7086811065673828,0.3246871948242188,0
0.7142938613891602,0.3251232147216797,0
0.7023342132568359,0.3251232147216797,0
0.7035867691040039,0.3117107391357422,0
0.7208679199218749,0.3117107391357422,0
0.7052976608276367,0.3143474578857422,0
0.6883317947387695,0.3143474578857422,0
0.6888914108276367,0.3063165664672852,0
0.6927875518798828,0.3063165664672852,0
0.6907590866088867,0.3047618865966797,0
0.6845352172851562,0.3047618865966797,0
0.6885463714599609,0.3035488128662109,0
0.6759389877319336,0.3035488128662109,0
0.6776395797729492,0.2910072326660156,0
0.6967563629150391,0.2910072326660156,0
0.6832077026367187,0.2973741531372070,0
0.6692487716674804,0.2973741531372070,0
0.6735300064086914,0.2957199096679687,0
0.6813228607177734,0.2957199096679687,0
0.6830085754394531,0.2994318008422852,0
0.6802545547485351,0.2994318008422852,0
0.6861911773681640,0.3027528762817382,0
0.6755945205688476,0.3027528762817382,0
0.6785339355468750,0.2927118301391601,0
0.6994651794433594,0.2927118301391601,0
0.6870872497558593,0.3012680053710937,0
0.6744409561157226,0.3012680053710937,0
0.6797842025756836,0.3018133163452149,0
0.6883043289184571,0.3018133163452149,0
0.6910326004028320,0.3063079833984375,0
0.6893440246582031,0.3063079833984375,0
0.6952016830444335,0.3108118057250976,0
0.6850055694580078,0.3108118057250976,0
0.6879198074340820,0.3010614395141601,0
0.7094804763793945,0.3010614395141601,0
0.6971878051757813,0.3098190307617187,0
0.6844196319580078,0.3098190307617187,0
0.6900541305541992,0.3105983734130859,0
0.6981645584106445,0.3105983734130859,0
0.7008956909179688,0.3143079757690430,0
0.6992757797241210,0.3143079757690430,0
0.7042556762695312,0.3185268402099609,0
0.6935869216918945,0.3185268402099609,0
0.6958803176879883,0.3078969955444336,0
0.7173522949218750,0.3078969955444336,0
0.7047494888305664,0.3162231445312500,0
0.6916414260864258,0.3162231445312500,0
0.6970098495483398,0.3166608810424805,0
0.7044954299926758,0.3166608810424805,0
0.7069684982299804,0.3190956115722656,0
0.7050779342651367,0.3190956115722656,0
0.7089878082275390,0.3226312637329101,0
0.6977708816528320,0.3226312637329101,0
0.6994119644165039,0.3111156463623047,0
0.7004419326782226,0.3204179763793945,0
0.7068964004516601,0.3080703735351563,0
0.7068964004516601,0.3075347900390625,0
0.7050893783569335,0.3209638595581055,0
0.7021013259887695,0.3122537612915039,0
0.7102643966674804,0.3122537612915039,0
0.6948045730590821,0.3220727920532226,0
0.7015892028808594,0.3146993637084961,0
0.7085174560546875,0.3194103240966797,0
0.7073375701904296,0.3199853897094727,0
0.7061885833740235,0.3209272384643554,0
0.7025842666625977,0.3125936508178711,0
0.7084573745727539,0.3222742080688477,0
0.7001724243164062,0.3248937606811523,0
0.7090169906616210,0.3067022323608398,0
0.6954391479492187,0.3198457717895508,0
0.7081077575683593,0.3210411071777344,0
0.7107078552246093,0.3216773986816406,0
0.7036039352416992,0.3135858535766601,0
0.7096029281616211,0.3103734970092774,0
0.7229187011718750,0.3134313583374023,0
0.7036783218383789,0.3160154342651367,0
0.7098993301391602,0.3106252670288086,0
0.7028051376342773,0.3335437774658203,0
0.7125549316406250,0.3235244750976562,0
0.7205320358276367,0.3151611328125000,0
0.7128015518188476,0.3268695831298828,0
0.7030431747436523,0.3148818969726562,0
0.7056787490844726,0.3238145828247070,0
0.7118385314941406,0.3124809265136719,0
0.7046836853027344,0.3124809265136719,0
0.7144603729248047,0.3128585815429688,0
0.7136552810668945,0.3246711730957031,0
0.7143825531005860,0.3282600402832031,0
0.7047460556030273,0.3164228439331054,0
0.7075344085693359,0.3164228439331054,0
0.7011114120483398,0.3243238449096680,0
0.7065107345581054,0.3266012191772461,0
0.7139299392700195,0.3265743255615234,0
0.7088722229003906,0.3411867141723633,0
0.7148723602294922,0.3294839859008789,0
0.7148723602294922,0.3270206451416016,0
0.7090982437133789,0.3196821212768555,0
0.7158565521240234,0.3109703063964844,0
0.7066440582275391,0.3265645980834961,0
0.7135345458984375,0.3165973663330078,0
0.7119266510009765,0.3140207290649414,0
0.6942501068115234,0.3115797042846680,0
0.6823762893676758,0.2947059631347656,0
0.6788555145263672,0.2928852081298828,0
0.6845575332641601,0.2928852081298828,0
0.6744775772094727,0.3045141220092774,0
0.6958631515502930,0.2911417007446289,0
0.6717161178588867,0.2991743087768555,0
0.6841089248657226,0.2899812698364257,0
0.6857906341552734,0.3019792556762695,0
0.6877515792846679,0.3019792556762695,0
0.6870512008666992,0.2946321487426758,0
0.6870512008666992,0.3059606552124023,0
0.7020652770996093,0.2959133148193359,0
0.6847005844116211,0.2987606048583984,0
0.6923578262329101,0.2972785949707031,0
0.6858083724975585,0.2972785949707031,0
0.6978750228881836,0.2977231979370117,0
0.6989879608154297,0.3089303970336914,0
0.6971443176269531,0.3145477294921875,0
0.6984111785888671,0.3184049606323242,0
0.7123712539672852,0.3046308517456054,0
0.6901651382446289,0.3140190124511719,0
0.7024475097656250,0.3056905746459961,0
0.7052667617797851,0.3176490783691406,0
0.7067968368530273,0.3048276901245117,0
0.7047105789184570,0.3127172470092773,0
0.6954906463623046,0.3208282470703125,0
0.7188755035400390,0.3103717803955078,0
0.7024177551269531,0.3127819061279297,0
0.7082942962646485,0.3106189727783203,0
0.7005208969116211,0.3316366195678711,0
0.7111043930053711,0.3079490661621094,0
0.7111043930053711,0.3184507369995117,0
0.7074829101562500,0.3231788635253906,0
0.7088853836059570,0.3210725784301758,0
0.7051689147949218,0.3149568557739258,0
0.7111341476440429,0.3149568557739258,0
0.7021659851074219,0.3123813629150390,0
0.7021659851074219,0.3238025665283203,0
0.7124885559082031,0.3187980651855469,0
0.7028709411621094,0.3151531219482422,0
0.6986354827880860,0.3235273361206055,0
0.7216341018676757,0.3130228042602539,0
0.7061061859130859,0.3155250549316406,0
0.7110380172729492,0.3131561279296875,0
0.7025316238403320,0.3131561279296875,0
0.7129354476928711,0.3225763320922851,0
0.7129354476928711,0.3186429977416992,0
0.7079263687133789,0.3236051559448242,0
0.7102169036865235,0.3094871520996094,0
0.7071498870849610,0.3214353561401367,0
0.7012910842895508,0.3162546157836914,0
0.7247829437255859,0.3142507553100586,0
0.7035232543945312,0.3250316619873047,0
0.7141799926757812,0.3192392349243164,0
0.7042087554931641,0.3381580352783203,0
0.7117343902587890,0.3105880737304688,0
0.7011714935302734,0.3231170654296875,0
0.7090496063232422,0.3176805496215820,0
0.7141107559204102,0.3083415985107422,0
0.7051980972290038,0.3352769851684570,0
0.7117933273315430,0.3264072418212891,0
0.7168607711791992,0.3201009750366211,0
0.7057857513427734,0.3170803070068359,0
0.7134452819824219,0.3245561599731445,0
0.7038545608520508,0.3313694000244141,0
0.7159063339233398,0.3099672317504883,0
0.7031112670898437,0.3250974655151367,0
0.7068946838378906,0.3279888153076172,0
0.7177957534790039,0.3125473022460937,0
0.7188102722167968,0.3210617065429687,0
0.7032617568969727,0.3269491195678711,0
0.7151327133178711,0.3260793685913086,0
0.7133274078369141,0.3211235046386718,0
0.7175565719604492,0.3211235046386718,0
0.7085077285766601,0.3195648193359375,0
0.7085077285766601,0.3292745590209961,0
0.7193470001220703,0.3218370437622070,0
0.7089157104492188,0.3418127059936523,0
0.7166559219360351,0.3142507553100586,0
0.7059047698974609,0.3271242141723633,0
0.7078113555908203,0.3222255706787109,0
0.7183851242065430,0.3271293640136719,0
0.7078697204589843,0.3282674789428711,0
0.7181991577148438,0.3282674789428711,0
0.7034139633178711,0.3177034378051758,0
0.7034139633178711,0.3143308639526367,0
0.7062223434448242,0.3169498443603516,0
0.6924184799194336,0.3214782714843750,0
0.6975288391113281,0.2935094833374023,0
0.6816593170166015,0.3084589004516601,0
0.6873561859130859,0.3065025329589844,0
0.6923166275024414,0.3026453018188476,0
0.6785499572753906,0.2942974090576172,0
0.6817617416381836,0.2920269012451172,0
0.6746698379516601,0.3091318130493164,0
0.6746698379516601,0.2928285598754883,0
0.6877733230590820,0.3019214630126953,0
0.6792972564697265,0.3044923782348632,0
0.6915779113769531,0.3025594711303711,0
0.6811140060424804,0.2971618652343750,0
0.6908323287963867,0.3058959960937500,0
0.6808004379272461,0.3153007507324219,0
0.6860435485839843,0.3040992736816406,0
0.6957979202270508,0.3034435272216797,0
0.6889469146728515,0.3034435272216797,0
0.7018283843994141,0.3110475540161133,0
0.6881738662719726,0.3110475540161133,0
0.6915618896484375,0.3061437606811523,0
0.7023719787597656,0.3061437606811523,0
0.7013568878173828,0.3147331237792969,0
0.6912374496459961,0.3147331237792969,0
0.7028469085693360,0.3129941940307617,0
0.6960960388183594,0.3129941940307617,0
0.7052152633666992,0.3113496780395508,0
0.7194946289062499,0.3113496780395508,0
0.7106266021728516,0.3181308746337890,0
0.6963958740234375,0.3181308746337890,0
0.6994256973266602,0.3126234054565429,0
0.7095748901367187,0.3126234054565429,0
0.7083103179931640,0.3204397201538086,0
0.6979499816894531,0.3204397201538086,0
0.7091279983520508,0.3184324264526367,0
0.7017448425292968,0.3184324264526367,0
0.7101024627685547,0.3155794143676758,0
0.7241672515869141,0.3155794143676758,0
0.7147012710571289,0.3213701248168945,0
0.7000436782836914,0.3213701248168945,0
0.7027679443359375,0.3153596878051758,0
0.7124811172485351,0.3153596878051758,0
0.7109539031982421,0.3226266860961914,0
0.7006256103515625,0.3226266860961914,0
0.7116147994995117,0.3206233978271484,0
0.7037847518920898,0.3206233978271484,0
0.7117464065551757,0.3168949127197265,0
0.7256893157958985,0.3168949127197265,0
0.7159790039062500,0.3223039627075195,0
0.7010250091552734,0.3223039627075195,0
0.7036497116088867,0.3161664962768554,0
0.7131219863891601,0.3161664962768554,0
0.7115999221801758,0.3230724334716797,0
0.7015600204467773,0.3230724334716797,0
0.7124467849731445,0.3213609695434570,0
0.7042728424072265,0.3213609695434570,0
0.7119976043701172,0.3171998977661133,0
0.7261756896972656,0.3171998977661133,0
0.7162885665893555,0.3224956512451172,0
0.7011194229125977,0.3224956512451172,0
0.7038379669189453,0.3165681838989258,0
0.7133251190185547,0.3165681838989258,0
0.7120811462402343,0.3236171722412109,0
0.7025367736816406,0.3236171722412109,0
0.7134550094604492,0.3225494384765625,0
0.7052267074584960,0.3225494384765625,0
0.7127798080444335,0.3179328918457031,0
0.7274362564086914,0.3179328918457031,0
0.7173980712890625,0.3235273361206055,0
0.7022478103637695,0.3235273361206055,0
0.7051609039306640,0.3178894042968750,0
0.7146343231201172,0.3178894042968750,0
0.7135557174682617,0.3250448226928711,0
0.7045692443847656,0.3250448226928711,0
0.7153192520141601,0.3243913650512695,0
0.7069936752319336,0.3243913650512695,0
0.7143739700317383,0.3194807052612305,0
0.7293296813964844,0.3194807052612305,0
0.7189201354980469,0.3250585556030273,0
0.7164699554443359,0.3250585556030273,0
0.7067705154418945,0.3195470809936523,0
0.7162221908569336,0.3195470809936523,0
0.7153038024902344,0.3267156600952149,0
0.7067796707153320,0.3267156600952149,0
0.7174821853637695,0.3262659072875976,0
0.7089265823364258,0.3262659072875976,0
0.7159292221069335,0.3208740234375000,0
0.7312019348144531,0.3208740234375000,0
0.7205577850341797,0.3264747619628906,0
0.7054550170898437,0.3264747619628906,0
0.7084516525268555,0.3211269378662109,0
0.7177431106567382,0.3211269378662109,0
0.7169065475463867,0.3281106948852539,0
0.7074954986572265,0.3281106948852539,0
0.7193309783935546,0.3280597686767578,0
0.7105276107788085,0.3280597686767578,0
0.7172876358032226,0.3220682144165039,0
0.7329380035400390,0.3220682144165039,0
0.7218257904052734,0.3276941299438477,0
0.7067899703979492,0.3276941299438477,0
0.7098009109497070,0.3224115371704102,0
0.7190608978271484,0.3224115371704102,0
0.7182231903076172,0.3291217803955078,0
0.7102724075317383,0.3291217803955078,0
0.7201629638671875,0.3285947799682617,0
0.7106815338134765,0.3285947799682617,0
0.7161987304687499,0.3208213806152344,0
0.7311029434204102,0.3208213806152344,0
0.7177820205688477,0.3236869812011718,0
0.7005889892578124,0.3236869812011718,0
0.7013311386108398,0.3142210006713867,0
0.7075870513916015,0.3142210006713867,0
0.7033309936523438,0.3149660110473633,0
0.6920310974121093,0.3149660110473633,0
0.6984918594360351,0.3093996047973633,0
0.6863267898559570,0.3093996047973633,0
0.6900896072387696,0.2985128402709961,0
0.7046075820922851,0.2985128402709961,0
0.6914531707763671,0.3021257400512695,0
0.6755819320678711,0.3021257400512695,0
0.6783130645751952,0.2963659286499024,0
0.6870082855224610,0.2963659286499024,0
0.6862552642822265,0.3026144027709961,0
0.6795158386230469,0.3026144027709961,0
0.6891534805297851,0.3031929016113281,0
0.6801006317138671,0.3031929016113281,0
0.6860589981079102,0.2961994171142578,0
0.7032806396484375,0.2961994171142578,0
0.6913301467895507,0.3029508590698242,0
0.6771961212158203,0.3029508590698242,0
0.6812324523925781,0.2995851516723633,0
0.6909473419189452,0.2995851516723633,0
0.6913215637207031,0.3073740005493164,0
0.6859325408935547,0.3073740005493164,0
0.6961389541625976,0.3096170425415039,0
0.6878042221069336,0.3096170425415039,0
0.6938987731933594,0.3033702850341797,0
0.7122018814086913,0.3033702850341797,0
0.7005077362060547,0.3110761642456055,0
0.6868331909179687,0.3110761642456055,0
0.6911664962768554,0.3083433151245117,0
0.7008865356445312,0.3083433151245117,0
0.7014415740966796,0.3158809661865234,0
0.6964868545532227,0.3158809661865234,0
0.7060443878173828,0.3181257247924805,0
0.6973600387573242,0.3181257247924805,0
0.7026460647583007,0.3108942031860352,0
0.7212129592895508,0.3108942031860352,0
0.7089672088623047,0.3183265686035156,0
0.6952102661132812,0.3183265686035156,0
0.6992517471313476,0.3154792785644531,0
0.7085803985595703,0.3154792785644531,0
0.7088882446289062,0.3220224380493164,0
0.7038734436035156,0.3220224380493164,0
0.7125806808471680,0.3237665176391601,0
0.7032566070556641,0.3237665176391601,0
0.7076671600341796,0.3152446746826172,0
0.7260601043701171,0.3152446746826172,0
0.7132970809936523,0.3219949722290039,0
0.6991441726684570,0.3219949722290039,0
0.7027702331542969,0.3187780380249023,0
0.7115839004516601,0.3187780380249023,0
0.7069828033447265,0.3243690490722656,0
0.7042814254760742,0.3243690490722656,0
0.7148494720458984,0.3259386062622070,0
0.7049926757812500,0.3259386062622070,0
0.7086330413818359,0.3164457321166992,0
0.7273029327392578,0.3164457321166992,0
0.7141330718994140,0.3230066299438477,0
0.7000036239624023,0.3230066299438477,0
0.7069049835205078,0.3135120391845703,0
0.7124399185180664,0.3246654510498047,0
0.7049486160278320,0.3225214004516602,0
0.7151166915893554,0.3261491775512695,0
0.7081352233886719,0.3261491775512695,0
0.7050430297851562,0.3203441619873047,0
0.7053016662597656,0.3203441619873047,0
0.7126115798950196,0.3126577377319336,0
0.7185104370117187,0.3126577377319336,0
0.7073467254638671,0.3248336791992187,0
0.6977394104003906,0.3248336791992187,0
0.7057371139526367,0.3166105270385742,0
0.7248001098632812,0.3166105270385742,0
0.7144477844238281,0.3269760131835938,0
0.6997541427612305,0.3269760131835938,0
0.7061073303222656,0.3209993362426758,0
0.7061170578002930,0.3209993362426758,0
0.7140409469604492,0.3137374877929687,0
0.7205205917358398,0.3137374877929687,0
0.7090742111206054,0.3262035369873047,0
0.6994565963745117,0.3262035369873047,0
0.7076597213745117,0.3180971145629883,0
0.7264640808105468,0.3180971145629883,0
0.7160768508911133,0.3286302566528320,0
0.7012510299682617,0.3286302566528320,0
0.7079074859619140,0.3221740722656250,0
0.7073467254638671,0.3221740722656250,0
0.7160488128662109,0.3150392532348633,0
0.7230726242065429,0.3150392532348633,0
0.7110906600952148,0.3277565002441406,0
0.7013454437255859,0.3277565002441406,0
0.7096126556396484,0.3196008682250976,0
0.7281543731689453,0.3196008682250976,0
0.7177579879760742,0.3301082611083984,0
0.7028228759765625,0.3301082611083984,0
0.7096578598022460,0.3234037399291992,0
0.7087348937988281,0.3234037399291992,0
0.7178890228271484,0.3164039611816406,0
0.7253734588623046,0.3164039611816406,0
0.7131826400756835,0.3291503906250000,0
0.7032886505126953,0.3291503906250000,0
0.7115083694458008,0.3210474014282226,0
0.7296873092651367,0.3210474014282226,0
0.7192274093627929,0.3314970016479492,0
0.7043798446655273,0.3314970016479492,0
0.7193996429443359,0.3164268493652344,0
0.7193996429443359,0.3288494110107422,0
0.7103078842163085,0.3276597976684570,0
0.7179279327392578,0.3276597976684570,0
0.7193063735961914,0.3298318862915039,0
0.7119958877563476,0.3298318862915039,0
0.7202362060546875,0.3319484710693359,0
0.7087148666381836,0.3319484710693359,0
0.7079675674438476,0.3176794052124023,0
0.7271770477294922,0.3176794052124023,0
0.7118013381958007,0.3213483810424805,0
0.6954345703125000,0.3213483810424805,0
0.6969503402709961,0.3149522781372070,0
0.7004962921142578,0.3149522781372070,0
0.6987110137939453,0.3108386993408203,0
0.6931932449340820,0.3108386993408203,0
0.6947484970092773,0.3101257324218750,0
0.6821308135986328,0.3101257324218750,0
0.6810997009277343,0.2957193374633789,0
0.7015932083129882,0.2957193374633789,0
0.6878488540649413,0.3023105621337890,0
0.6737949371337890,0.3023105621337890,0
0.6786375045776367,0.3017051696777344,0
0.6859725952148438,0.3017051696777344,0
0.6879032135009765,0.3029411315917969,0
0.6859680175781250,0.3029411315917969,0
0.6895500183105469,0.3070352554321289,0
0.6793161392211914,0.3070352554321289,0
0.6797372817993164,0.2955430984497070,0
0.7019062042236328,0.2955430984497070,0
0.6894378662109375,0.3042325973510742,0
0.6765964508056640,0.3042325973510742,0
0.6825874328613281,0.3056917190551758,0
0.6908866882324218,0.3056917190551758,0
0.6936195373535156,0.3078529357910156,0
0.6927709579467773,0.3078529357910156,0
0.6963861465454101,0.3133850097656250,0
0.6867433547973633,0.3133850097656250,0
0.6875724792480469,0.3027677536010742,0
0.7104818344116210,0.3027677536010742,0
0.6984970092773437,0.3120437622070312,0
0.6858238220214844,0.3120437622070312,0
0.6923011779785156,0.3142272949218750,0
0.7004854202270507,0.3142272949218750,0
0.7033687591552734,0.3156772613525390,0
0.7027090072631835,0.3156772613525390,0
0.7055425643920898,0.3212104797363281,0
0.6957086563110352,0.3212104797363281,0
0.6962837219238281,0.3102144241333007,0
0.7190065383911133,0.3102144241333007,0
0.7071756362915039,0.3191396713256836,0
0.6940876007080078,0.3191396713256836,0
0.7003469467163086,0.3212179183959961,0
0.7081781387329101,0.3212179183959961,0
0.7107267379760742,0.3215658187866211,0
0.7098031997680664,0.3215658187866211,0
0.7115301132202149,0.3263877868652343,0
0.7008911132812500,0.3263877868652343,0
0.7013746261596679,0.3145460128784179,0
0.7236694335937500,0.3145460128784179,0
0.7116285324096679,0.3226203918457031,0
0.6980506896972656,0.3226203918457031,0
0.7037069320678710,0.3243078231811523,0
0.7110986709594727,0.3243078231811523,0
0.7134412765502930,0.3236223220825195,0
0.7124135971069335,0.3236223220825195,0
0.7132890701293945,0.3278463363647461,0
0.7022100448608398,0.3278463363647461,0
0.7024847030639648,0.3156137466430664,0
0.7128599166870117,0.3145357131958008,0
0.7043294906616211,0.3250408172607422,0
0.7114946365356445,0.3250408172607422,0
0.7136987686157227,0.3235828399658203,0
0.7127780914306641,0.3235828399658203,0
0.7129732131958008,0.3276351928710937,0
0.7019342422485352,0.3276351928710937,0
0.7021482467651367,0.3155204772949219,0
0.7241380691528320,0.3155204772949219,0
0.7127775192260742,0.3232526779174805,0
0.6991550445556640,0.3232526779174805,0
0.7044748306274414,0.3255409240722656,0
0.7117475509643555,0.3255409240722656,0
0.7143081665039063,0.3239141464233398,0
0.7137943267822265,0.3239141464233398,0
0.7136478424072266,0.3283275604248047,0
0.7029258728027343,0.3283275604248047,0
0.7031507492065430,0.3166048049926758,0
0.7253980636596680,0.3166048049926758,0
0.7143905639648437,0.3246070861816406,0
0.7009225845336914,0.3246070861816406,0
0.7062664031982422,0.3273794174194336,0
0.7134613037109375,0.3273794174194336,0
0.7162525177001953,0.3253520965576172,0
0.7159772872924804,0.3253520965576172,0
0.7152173995971679,0.3299005508422851,0
0.7047386169433594,0.3299005508422851,0
0.7050418853759766,0.3183317184448242,0
0.7272045135498046,0.3183317184448242,0
0.7165271759033203,0.3263523101806641,0
0.7031129837036133,0.3263523101806641,0
0.7082708358764648,0.3292505264282227,0
0.7154125213623047,0.3292505264282227,0
0.7183124542236328,0.3267860412597656,0
0.7181625366210938,0.3267860412597656,0
0.7168104171752929,0.3312377929687500,0
0.7065622329711914,0.3312377929687500,0
0.7065977096557617,0.3199178695678711,0
0.7287792205810547,0.3199178695678711,0
0.7184577941894531,0.3278709411621094,0
0.7051929473876953,0.3278709411621094,0
0.7101842880249023,0.3309631347656250,0
0.7172401428222656,0.3309631347656250,0
0.7202453613281250,0.3280214309692382,0
0.7202116012573242,0.3280214309692382,0
0.7181470870971679,0.3324983596801758,0
0.7080396652221680,0.3324983596801758,0
0.7081386566162109,0.3212356567382812,0
0.7302389144897461,0.3212356567382812,0
0.7200428009033203,0.3289821624755859,0
0.7065353393554688,0.3289821624755859,0
0.7110013961791992,0.3316543579101562,0
0.7173728942871094,0.3316543579101562,0
0.7196342468261718,0.3267568588256836,0
0.7185985565185546,0.3267568588256836,0
0.7141147613525390,0.3282268524169922,0
0.7019977569580078,0.3282268524169922,0
0.6998834609985352,0.3129833221435547,0
0.7189573287963867,0.3129833221435547,0
0.7053314208984375,0.3147645950317383,0
0.6880559921264648,0.3147645950317383,0
0.6892221450805663,0.3121925354003906,0
0.6930810928344726,0.3121925354003906,0
0.6939828872680663,0.3041450500488281,0
0.6924282073974609,0.3041450500488281,0
0.6876188278198242,0.3065259933471680,0
0.6769174575805664,0.3065259933471680,0
0.6766937255859374,0.2946201324462890,0
0.6984907150268554,0.2946201324462890,0
0.6884267807006835,0.3021921157836914,0
0.6750967025756835,0.3021921157836914,0
0.6796279907226562,0.3054925918579102,0
0.6866197586059570,0.3054925918579102,0
0.6900833129882812,0.3012628555297852,0
0.6908334732055664,0.3012628555297852,0
0.6869384765625000,0.3065460205078125,0
0.6778089523315429,0.3065460205078125,0
0.6789052963256835,0.2969593048095703,0
0.7017911911010742,0.2969593048095703,0
0.6927394866943359,0.3062221527099609,0
0.6804456710815430,0.3062221527099609,0
0.6855594635009765,0.3109102249145508,0
0.6934513092041016,0.3109102249145508,0
0.6977142333984375,0.3073596954345703,0
0.6991756439208984,0.3073596954345703,0
0.6951032638549804,0.3137615203857422,0
0.6865476608276367,0.3137615203857422,0
0.6880359649658203,0.3048488616943359,0
0.7111793518066406,0.3048488616943359,0
0.7024429321289062,0.3143451690673828,0
0.6901960372924805,0.3143451690673828,0
0.6951107025146485,0.3190475463867187,0
0.7029006958007812,0.3190475463867187,0
0.7071853637695312,0.3146638870239258,0
0.7086181640625000,0.3146638870239258,0
0.7037143707275391,0.3209884643554687,0
0.6951112747192383,0.3209884643554687,0
0.6964010238647461,0.3119842529296875,0
0.7194128036499023,0.3119842529296875,0
0.7105184555053711,0.3210863113403320,0
0.6979373931884766,0.3210863113403320,0
0.7023576736450196,0.3251026153564453,0
0.7097019195556641,0.3251026153564453,0
0.7135482788085937,0.3193193435668945,0
0.7146852493286132,0.3193193435668945,0
0.7085964202880859,0.3250963211059570,0
0.6997112274169922,0.3250963211059570,0
0.7005043029785156,0.3154197692871094,0
0.7231241226196289,0.3154197692871094,0
0.7138635635375976,0.3237974166870117,0
0.7008836746215820,0.3237974166870117,0
0.7049354553222656,0.3270503997802734,0
0.7119277954101563,0.3270503997802734,0
0.7154771804809570,0.3201381683349609,0
0.7164167404174805,0.3201381683349609,0
0.7096612930297851,0.3257801055908203,0
0.7005844116210938,0.3257801055908203,0
0.7012739181518555,0.3160629272460938,0
0.7238622665405273,0.3160629272460938,0
0.7143230438232422,0.3241950988769531,0
0.7013448715209961,0.3241950988769531,0
0.7049755096435547,0.3270795822143555,0
0.7118133544921875,0.3270795822143555,0
0.7155029296875000,0.3195018768310547,0
0.7165420532226562,0.3195018768310547,0
0.7091365814208984,0.3254585266113281,0
0.7003086090087890,0.3254585266113281,0
0.7010341644287109,0.3161167144775390,0
0.7238239288330078,0.3161167144775390,0
0.7145599365234375,0.3245212554931641,0
0.7017265319824219,0.3245212554931641,0
0.7054796218872070,0.3276271820068359,0
0.7125566482543945,0.3276271820068359,0
0.7163881301879883,0.3197931289672851,0
0.7177871704101563,0.3197931289672851,0
0.7101190567016601,0.3263425827026367,0
0.7015485763549805,0.3263425827026367,0
0.7024394989013671,0.3175477981567383,0
0.7254999160766601,0.3175477981567383,0
0.7164688110351562,0.3262779235839844,0
0.7037046432495117,0.3262779235839844,0
0.7074537277221680,0.3293403625488281,0
0.7145565032958984,0.3293403625488281,0
0.7183862686157226,0.3211715698242187,0
0.7199523925781249,0.3211715698242187,0
0.7119026184082031,0.3280265808105469,0
0.7034465789794921,0.3280265808105469,0
0.7043529510498047,0.3193038940429687,0
0.7275741577148437,0.3193038940429687,0
0.7184040069580078,0.3281009674072266,0
0.7055871963500976,0.3281009674072266,0
0.7093751907348632,0.3309476852416992,0
0.7163515090942383,0.3309476852416992,0
0.7202762603759766,0.3222393035888672,0
0.7219408035278320,0.3222393035888672,0
0.7135328292846680,0.3294136047363281,0
0.7176670074462891,0.3159170150756836,0
0.7166604995727539,0.3208866119384766,0
0.7074457168579101,0.3296842575073242,0
0.7194293975830078,0.3232440948486328,0
0.7083045959472656,0.3295675277709961,0
0.7216381072998047,0.3227668762207031,0
0.7141084671020508,0.3199304580688476,0
0.7052816390991211,0.3366210937500000,0
0.7275804519653321,0.3199962615966797,0
0.7017528533935546,0.3259637832641601,0
0.7137027740478515,0.3176239013671875,0
0.7126733779907226,0.3187866210937500,0
0.7073587417602539,0.3022727966308594,0
0.6931045532226562,0.3107019424438476,0
0.6946935653686523,0.3107019424438476,0
0.7023765563964843,0.2987119674682617,0
0.6915927886962890,0.3054159164428711,0
0.6897188186645508,0.2983251571655273,0
0.6929597854614258,0.3173612594604492,0
0.6768115997314453,0.2964666366577148,0
0.7055242538452148,0.3000314712524414,0
0.6835000991821288,0.3087398529052734,0
0.6953590393066406,0.2998958587646484,0
0.6895494461059570,0.2996778488159180,0
0.6823099136352538,0.3095283508300781,0
0.6846055984497070,0.3033159255981445,0
0.7003452301025390,0.3138113021850586,0
0.7000551223754883,0.3080909729003906,0
0.7063665390014648,0.3149854660034180,0
0.7049263000488281,0.3025251388549804,0
0.7054510116577148,0.3100748062133789,0
0.6948657989501953,0.3187088012695312,0
0.6939840316772461,0.3112089157104492,0
0.7091686248779296,0.3213930130004883,0
0.7084980010986328,0.3209220886230469,0
0.7143230438232422,0.3121198654174804,0
0.6993301391601562,0.3215623855590820,0
0.7022455215454101,0.3161098480224609,0
0.7110666275024414,0.3239456176757812,0
0.6998537063598632,0.3159301757812500,0
0.7137943267822265,0.3251884460449219,0
0.7125371932983399,0.3245275497436523,0
0.7111444473266602,0.3260129928588867,0
0.7149387359619140,0.3155467987060547,0
0.7045434951782227,0.3375131607055664,0
0.7127105712890625,0.3252714157104492,0
0.7015279769897461,0.3252714157104492,0
0.7146972656250000,0.3234752655029297,0
0.7146972656250000,0.3260284423828125,0
0.7176372528076171,0.3145139694213867,0
0.7020040512084961,0.3153018951416016,0
0.7045263290405274,0.3181257247924805,0
0.7126693725585938,0.3250757217407226,0
0.7017013549804687,0.3362005233764648,0
0.7146148681640625,0.3118818283081055,0
0.7015663146972656,0.3260375976562500,0
0.7177654266357422,0.3259397506713867,0
0.7177654266357422,0.3243495941162109,0
0.7050355911254883,0.3187700271606445,0
0.7078971862792969,0.3253669738769531,0
0.7029121398925781,0.3375314712524414,0
0.7068414688110352,0.3251031875610351,0
0.7158977508544921,0.3273588180541992,0
0.7070955276489258,0.3271774291992187,0
0.7193452835083007,0.3271774291992187,0
0.7067871093750000,0.3168640136718750,0
0.7067871093750000,0.3204648971557617,0
0.7154422760009765,0.3278028488159180,0
0.7051734924316406,0.3197250366210938,0
0.7178312301635742,0.3292413711547851,0
0.7047449111938476,0.3292413711547851,0
0.7142469406127929,0.3286251068115234,0
0.7212696075439453,0.3276803970336914,0
0.7086845397949219,0.3222982406616211,0
0.7114528656005860,0.3178522109985352,0
0.7073369979858398,0.3417268753051758,0
0.7299837112426758,0.3214416503906250,0
0.7064666748046875,0.3309665679931640,0
0.7177928924560547,0.3236743927001953,0
0.7227802276611328,0.3291538238525391,0
0.7198534011840820,0.3168262481689453,0
0.7127174377441406,0.3236658096313477,0
0.7182334899902344,0.3303113937377929,0
0.7079938888549805,0.3420324325561523,0
0.7181299209594726,0.3154363632202148,0
0.7031084060668945,0.3292213439941406,0
0.7079332351684570,0.3244691848754883,0
0.7153999328613281,0.3218873977661132,0
0.6972633361816406,0.3112203598022461,0
0.6962282180786132,0.3031711578369141,0
0.6864149093627929,0.3227382659912109,0
0.7057748794555664,0.3020856857299805,0
0.6785619735717773,0.3084325790405273,0
0.6897485733032226,0.2997081756591797,0
0.6930959701538085,0.3041833877563476,0
0.6900049209594726,0.2920389175415039,0
0.6829296112060547,0.2936817169189453,0
0.6740987777709960,0.3054685592651367,0
0.7018856048583985,0.2976602554321289,0
0.6924270629882813,0.3065866470336914,0
0.6896421432495117,0.3003742218017578,0
0.6841020584106445,0.3003742218017578,0
0.6938478469848632,0.2960168838500977,0
0.6938478469848632,0.2979337692260742,0
0.6887512207031250,0.3110086441040039,0
0.6957864761352539,0.3121210098266601,0
0.7007131576538086,0.3142118453979492,0
0.7006530761718750,0.3022436141967773,0
0.6937488555908203,0.3211406707763672,0
0.6974475860595702,0.3141832351684570,0
0.7036056518554688,0.3063119888305664,0
0.6953762054443359,0.3291303634643555,0
0.7054710388183594,0.3071050643920898,0
0.6998291015625000,0.3204505920410156,0
0.7097625732421875,0.3223606109619140,0
0.7097625732421875,0.3234752655029297,0
0.7021230697631836,0.3209077835083008,0
0.7132020950317383,0.3114297866821289,0
0.7024835586547852,0.3350212097167969,0
0.7116182327270507,0.3186996459960937,0
0.7116336822509766,0.3256330490112305,0
0.7153186798095703,0.3267276763916016,0
0.7142721176147461,0.3137443542480469,0
0.7056936264038086,0.3302850723266602,0
0.7077192306518555,0.3233945846557617,0
0.7190740585327148,0.3146175384521484,0
0.7048238754272461,0.3209827423095703,0
0.7134996414184570,0.3270618438720703,0
0.7052227020263672,0.3400382995605469,0
0.7152786254882812,0.3146879196166992,0
0.7007749557495117,0.3281885147094726,0
0.7078107833862305,0.3234180450439453,0
0.7163103103637695,0.3251312255859375,0
0.7049755096435547,0.3213489532470703,0
0.7076786041259765,0.3213489532470703,0
0.7054327011108398,0.3400039672851562,0
0.7054327011108398,0.3181474685668945,0
0.7006193161010742,0.3283012390136719,0
0.7105081558227538,0.3189903259277344,0
0.7162313461303711,0.3253572463989258,0
0.7142028808593750,0.3253572463989258,0
0.7083955764770508,0.3158546447753906,0
0.6990114212036133,0.3274681091308594,0
0.7265556335449218,0.3189880371093750,0
0.7177305221557617,0.3294193267822266,0
0.7112257003784179,0.3200351715087891,0
0.7175102233886719,0.3267345428466797,0
0.7156848907470703,0.3154747009277344,0
0.7154668807983399,0.3240205764770508,0
0.7161437988281250,0.3293684005737305,0
0.7087297439575195,0.3426630020141602,0
0.7087297439575195,0.3312961578369141,0
0.7177185058593750,0.3176959991455078,0
0.7124748229980469,0.3215068817138672,0
0.7321907043457031,0.3215068817138672,0
0.7190053939819335,0.3283658981323242,0
0.7048307418823242,0.3283658981323242,0
0.7088636398315430,0.3259832382202149,0
0.7171909332275390,0.3259832382202149,0
0.7180807113647460,0.3310111999511718,0
0.7142354965209960,0.3310111999511718,0
0.7214092254638672,0.3331083297729492,0
0.7107965469360351,0.3331083297729492,0
0.7138429641723633,0.3229007720947266,0
0.7338747024536133,0.3229007720947266,0
0.7206047058105468,0.3298364639282226,0
0.7191181182861328,0.3298364639282226,0
0.7104366302490234,0.3274480819702149,0
0.7182540893554688,0.3274480819702149,0
0.7189029693603516,0.3313453674316406,0
0.7146348953247070,0.3313453674316406,0
0.7204559326171874,0.3320978164672851,0
0.7081735610961913,0.3320978164672851,0
0.7093717575073242,0.3184598922729492,0
0.7275329589843750,0.3184598922729492,0
0.7119678497314453,0.3213918685913086,0
0.6949087142944336,0.3213918685913086,0
0.6958723068237305,0.3138507843017578,0
0.7002279281616210,0.3138507843017578,0
0.6985816955566406,0.3128425598144531,0
0.6925718307495117,0.3128425598144531,0
0.6968336105346680,0.3119670867919922,0
0.6840986251831055,0.3119670867919922,0
0.6856847763061523,0.2991359710693359,0
0.7053731918334961,0.2991359710693359,0
0.6915687561035156,0.3053821563720703,0
0.6772842407226562,0.3053821563720703,0
0.6816604614257812,0.3036638259887695,0
0.6894384384155273,0.3036638259887695,0
0.6910148620605469,0.3076137542724609,0
0.6882797241210937,0.3076137542724609,0
0.6945688247680664,0.3110275268554688,0
0.6836837768554688,0.3110275268554688,0
0.6865585327148437,0.3007638931274414,0
0.7080636978149414,0.3007638931274414,0
0.6955369949340821,0.3093246459960937,0
0.6824575424194336,0.3093246459960937,0
0.6878013610839844,0.3095855712890625,0
0.6963695526123047,0.3095855712890625,0
0.6990182876586913,0.3142868041992187,0
0.6971746444702148,0.3142868041992187,0
0.7034975051879883,0.3189994812011719,0
0.6929208755493164,0.3189994812011719,0
0.6959112167358398,0.3090969085693359,0
0.7178924560546874,0.3090969085693359,0
0.7053205490112304,0.3179231643676758,0
0.6922771453857421,0.3179231643676758,0
0.6978235244750977,0.3184249877929687,0
0.7060781478881836,0.3184249877929687,0
0.7087423324584960,0.3224195480346679,0
0.7069198608398437,0.3224195480346679,0
0.7124937057495117,0.3269405364990234,0
0.7014553070068359,0.3269405364990234,0
0.7038385391235351,0.3160800933837891,0
0.7256046295166015,0.3160800933837891,0
0.7126888275146485,0.3241888046264648,0
0.6992614746093749,0.3241888046264648,0
0.7043598175048827,0.3240257263183594,0
0.7119964599609375,0.3240257263183594,0
0.7141033172607422,0.3267774581909180,0
0.7120445251464843,0.3267774581909180,0
0.7166250228881835,0.3304275512695312,0
0.7049869537353516,0.3304275512695312,0
0.7066726684570312,0.3186012268066406,0
0.7281995773315429,0.3186012268066406,0
0.7150222778320312,0.3260868072509766,0
0.7011165618896484,0.3260868072509766,0
0.7062091827392578,0.3258710861206054,0
0.7111530303955078,0.3258710861206054,0
0.7155321121215820,0.3277502059936523,0
0.7133932113647461,0.3277502059936523,0
0.7172252655029296,0.3310552597045898,0
0.7053886413574219,0.3310552597045898,0
0.7065719604492188,0.3188020706176758,0
0.7282384872436524,0.3188020706176758,0
0.7148643493652344,0.3260873794555664,0
0.7010015487670899,0.3260873794555664,0
0.7060970306396485,0.3260124206542969,0
0.7133291244506835,0.3260124206542969,0
0.7154308319091797,0.3275127410888672,0
0.7135894775390624,0.3275127410888672,0
0.7169105529785156,0.3311004638671875,0
0.7051597595214844,0.3311004638671875,0
0.7061834335327148,0.3187437057495117,0
0.7282161712646484,0.3187437057495117,0
0.7150794982910156,0.3264055252075195,0
0.7014226913452148,0.3264055252075195,0
0.7068237304687500,0.3270217895507813,0
0.7142154693603515,0.3270217895507813,0
0.7164396286010742,0.3283744812011719,0
0.7149456024169921,0.3283744812011719,0
0.7179937362670898,0.3322334289550781,0
0.7064048767089843,0.3322334289550781,0
0.7073049545288086,0.3202131271362305,0
0.7094850540161133,0.3292922973632812,0
0.7167686462402344,0.3279773712158203,0
0.7159189224243164,0.3279773712158203,0
0.7086193084716796,0.3289649963378906,0
0.7159973144531250,0.3289649963378906,0
0.7184320449829101,0.3300373077392578,0
0.7170524597167969,0.3300373077392578,0
0.7196668624877930,0.3338973999023437,0
0.7081426620483399,0.3338973999023437,0
0.7087640762329102,0.3217678070068359,0
0.7312494277954101,0.3217678070068359,0
0.7183588027954101,0.3295875549316406,0
0.7177734375000000,0.3194864273071289,0
0.7171176910400391,0.3318763732910156,0
0.7057331085205077,0.3315713882446289,0
0.7132324218750000,0.3461608886718750,0
0.7132324218750000,0.3233659744262695,0
0.7192045211791992,0.3353256225585937,0
0.7100526809692382,0.3230873107910156,0
0.7326004028320312,0.3230873107910156,0
0.7199306488037109,0.3306827545166016,0
0.7059980392456054,0.3306827545166016,0
0.7112308502197265,0.3314952850341797,0
0.7180223464965820,0.3314952850341797,0
0.7196777343749999,0.3304298400878906,0
0.7173133850097656,0.3304298400878906,0
0.7171772003173827,0.3313167572021484,0
0.7037286758422852,0.3313167572021484,0
0.7019651412963867,0.3150484085083008,0
0.7216907501220703,0.3150484085083008,0
0.7059425354003906,0.3171226501464844,0
0.6886768341064453,0.3171226501464844,0
0.6912637710571289,0.3135738372802734,0
0.6955793380737304,0.3135738372802734,0
0.6960943222045898,0.3099254608154297,0
0.6935422897338867,0.3099254608154297,0
0.6934965133666992,0.3116615295410156,0
0.6813440322875977,0.3116615295410156,0
0.6812685012817382,0.2985225677490234,0
0.7035490036010742,0.2985225677490234,0
0.6914451599121093,0.3062713623046875,0
0.6777894973754882,0.3062713623046875,0
0.6835390090942383,0.3085189819335937,0
0.6910915374755859,0.3085189819335937,0
0.6940572738647460,0.3090167999267578,0
0.6938472747802734,0.3090167999267578,0
0.6950769424438477,0.3137712478637695,0
0.6845964431762696,0.3137712478637695,0
0.6859165191650390,0.3029205322265625,0
0.7091926574707031,0.3029205322265625,0
0.6982366561889648,0.3124094009399414,0
0.6855262756347656,0.3124094009399414,0
0.6919698715209961,0.3162683486938476,0
0.6999698638916015,0.3162683486938476,0
0.7037469863891601,0.3173389434814453,0
0.7039947509765625,0.3173389434814453,0
0.7050081253051758,0.3224161148071289,0
0.6948457717895508,0.3224161148071289,0
0.6961429595947265,0.3117055892944336,0
0.7190986633300781,0.3117055892944336,0
0.7082691192626953,0.3208488464355468,0
0.6953704833984374,0.3208488464355468,0
0.7013231277465820,0.3244119644165039,0
0.7088035583496094,0.3244119644165039,0
0.7124158859252929,0.3246299743652344,0
0.7124948501586914,0.3246299743652344,0
0.7126974105834961,0.3289587020874024,0
0.7020715713500977,0.3289587020874024,0
0.7030878067016602,0.3174425125122070,0
0.7253047943115234,0.3174425125122070,0
0.7142251968383789,0.3255849838256836,0
0.7133571624755859,0.3255849838256836,0
0.7060735702514648,0.3284814834594726,0
0.7142612457275390,0.3284814834594726,0
0.7162473678588867,0.3273210525512695,0
0.7158130645751953,0.3273210525512695,0
0.7151441574096680,0.3311170578002929,0
0.7043787002563476,0.3311170578002929,0
0.7052919387817382,0.3189645767211914,0
0.7272136688232421,0.3189645767211914,0
0.7158548355102539,0.3268764495849609,0
0.7020544052124024,0.3268764495849609,0
0.7071722030639648,0.3294359207153320,0
0.7137010574340820,0.3294359207153320,0
0.7168630599975586,0.3275676727294922,0
0.7164230346679688,0.3275676727294922,0
0.7152013778686523,0.3310117721557617,0
0.7044702529907226,0.3310117721557617,0
0.7051328659057617,0.3189073562622070,0
0.7266969680786133,0.3189073562622070,0
0.7154891967773437,0.3265434265136719,0
0.7017042160034179,0.3265434265136719,0
0.7066720962524414,0.3292591094970703,0
0.7133274078369141,0.3292591094970703,0
0.7166250228881835,0.3271064758300781,0
0.7163612365722656,0.3271064758300781,0
0.7148260116577149,0.3308853149414062,0
0.7043872833251953,0.3308853149414062,0
0.7051900863647461,0.3190372467041016,0
0.7270551681518554,0.3190372467041016,0
0.7161266326904296,0.3271173477172851,0
0.7151470184326172,0.3271173477172851,0
0.7076196670532227,0.3302444458007812,0
0.7143545150756836,0.3302444458007812,0
0.7178363800048828,0.3279178619384766,0
0.7178152084350585,0.3279178619384766,0
0.7158491134643554,0.3319004058837891,0
0.7158250808715820,0.3319004058837891,0
0.7066772460937499,0.3205163955688476,0
0.7286939620971680,0.3205163955688476,0
0.7180200576782226,0.3286703109741211,0
0.7044553756713867,0.3286703109741211,0
0.7093677520751953,0.3318918228149414,0
0.7161437988281250,0.3318918228149414,0
0.7197029113769531,0.3291275024414063,0
0.7198081970214844,0.3291275024414063,0
0.7173952102661133,0.3333835601806641,0
0.7072425842285156,0.3333835601806641,0
0.7085140228271484,0.3219766616821289,0
0.7304122924804687,0.3219766616821289,0
0.7198848724365234,0.3301574707031250,0
0.7063076019287109,0.3301574707031250,0
0.7110723495483399,0.3334985733032226,0
0.7178598403930664,0.3334985733032226,0
0.7214950561523438,0.3302478790283203,0
0.7216655731201171,0.3302478790283203,0
0.7186780929565429,0.3345211029052734,0
0.7086330413818359,0.3345211029052734,0
0.7096355438232421,0.3227891921997070,0
0.7310211181640625,0.3227891921997070,0
0.7200925827026367,0.3299171447753906,0
0.7056833267211914,0.3299171447753906,0
0.7089855194091796,0.3309946060180664,0
0.7138263702392578,0.3309946060180664,0
0.7155469894409180,0.3235101699829102,0
0.7133428573608398,0.3235101699829102,0
0.7068311691284179,0.3227943420410156,0
0.6934146881103516,0.3227943420410156,0
0.6913284301757813,0.3058851242065430,0
0.7098100662231445,0.3058851242065430,0
0.6970058441162109,0.3096633911132812,0
0.6816129684448242,0.3096633911132812,0
0.6846891403198242,0.3104095458984375,0
0.6901422500610351,0.3104095458984375,0
0.6933076858520507,0.3048820495605469,0
0.6932304382324218,0.3048820495605469,0
0.6888811111450195,0.3091609954833984,0
0.6793281555175781,0.3091609954833984,0
0.6810258865356446,0.2985071182250976,0
0.7027805328369140,0.2985071182250976,0
0.6930233001708984,0.3072160720825195,0
0.6802934646606446,0.3072160720825195,0
0.6851795196533202,0.3114286422729492,0
0.6923532485961914,0.3114286422729492,0
0.6970264434814453,0.3078454971313476,0
0.6983682632446289,0.3078454971313476,0
0.6944732666015625,0.3144001007080078,0
0.6860761642456055,0.3144001007080078,0
0.6888936996459961,0.3055864334106445,0
0.7114431381225585,0.3055864334106445,0
0.7025527954101562,0.3155708312988281,0
0.6904724121093749,0.3155708312988281,0
0.6956977844238281,0.3204694747924804,0
0.7031616210937500,0.3204694747924804,0
0.7079401016235352,0.3167232513427734,0
0.7094873428344727,0.3167232513427734,0
0.7049800872802734,0.3232778549194336,0
0.6965068817138672,0.3232778549194336,0
0.6992071151733398,0.3142381668090820,0
0.7212884902954101,0.3142381668090820,0
0.7121515274047852,0.3236211776733398,0
0.6997169494628906,0.3236211776733398,0
0.7043672561645508,0.3277301788330078,0
0.7112949371337890,0.3277301788330078,0
0.7156179428100585,0.3227605819702148,0
0.7167469024658203,0.3227605819702148,0
0.7111822128295898,0.3284145355224609,0
0.7022924423217773,0.3284145355224609,0
0.7045555114746094,0.3186676025390625,0
0.7261402130126953,0.3186676025390625,0
0.7166410446166992,0.3271327972412109,0
0.7037338256835938,0.3271327972412109,0
0.7078176498413086,0.3304956436157226,0
0.7142875671386718,0.3304956436157226,0
0.7184452056884766,0.3243936538696289,0
0.7193572998046874,0.3243936538696289,0
0.7130126953125000,0.3298456192016602,0
0.7040605545043945,0.3298456192016602,0
0.7059906005859374,0.3199241638183594,0
0.7274024963378906,0.3199241638183594,0
0.7178054809570312,0.3281084060668945,0
0.7048233032226562,0.3281084060668945,0
0.7086582183837891,0.3310661315917969,0
0.7148054122924804,0.3310661315917969,0
0.7189435958862305,0.3246294021606445,0
0.7199352264404296,0.3246294021606445,0
0.7133457183837890,0.3298467636108398,0
0.7043134689331054,0.3298467636108398,0
0.7061044692993164,0.3200477600097656,0
0.7276777267456055,0.3200477600097656,0
0.7180892944335937,0.3283744812011719,0
0.7050670623779297,0.3283744812011719,0
0.7089008331298828,0.3313734054565430,0
0.7153358459472656,0.3313734054565430,0
0.7195478439331054,0.3247598648071289,0
0.7093265533447265,0.3247598648071289,0
0.7138841629028320,0.3304412841796875,0
0.7050973892211914,0.3304412841796875,0
0.7069787979125977,0.3209106445312500,0
0.7289068222045898,0.3209106445312500,0
0.7193893432617188,0.3296178817749023,0
0.7064340591430663,0.3296178817749023,0
0.7103599548339844,0.3327272415161133,0
0.7169832229614258,0.3327272415161133,0
0.7212369918823242,0.3257320404052734,0
0.7224826812744141,0.3257320404052734,0
0.7153352737426758,0.3316703796386719,0
0.7065977096557617,0.3316703796386719,0
0.7083847045898437,0.3225196838378906,0
0.7307905197143555,0.3225196838378906,0
0.7212118148803711,0.3313133239746094,0
0.7083314895629883,0.3313133239746094,0
0.7121320724487304,0.3343299865722656,0
0.7189012527465820,0.3343299865722656,0
0.7231349945068359,0.3269376754760742,0
0.7245386123657226,0.3269376754760742,0
0.7169002532958985,0.3331306457519531,0
0.7082330703735351,0.3331306457519531,0
0.7098329544067382,0.3240961074829101,0
0.7324951171874999,0.3240961074829101,0
0.7230348587036133,0.3328496932983399,0
0.7101499557495117,0.3328496932983399,0
0.7138309478759766,0.3357421875000000,0
0.7204896926879882,0.3357421875000000,0
0.7245414733886718,0.3276031494140625,0
0.7258369445800781,0.3276031494140625,0
0.7174736022949219,0.3333086013793945,0
0.7083663940429688,0.3333086013793945,0
0.7087932586669922,0.3230987548828125,0
0.7305450439453125,0.3230987548828125,0
0.7196428298950195,0.3291847229003906,0
0.7048284530639648,0.3291847229003906,0
0.7061731338500976,0.3279767990112304,0
0.7102220535278320,0.3279767990112304,0
0.7110546112060546,0.3141557693481445,0
0.7090290069580077,0.3141557693481445,0
0.6976987838745117,0.3153476715087891,0
0.6863903045654297,0.3153476715087891,0
0.6854021072387695,0.3029766082763672,0
0.7066543579101562,0.3029766082763672,0
0.6961509704589843,0.3096885681152344,0
0.6826927185058593,0.3096885681152344,0
0.6856796264648437,0.3114177703857422,0
0.6921741485595703,0.3114177703857422,0
0.6960880279541015,0.3027740478515625,0
0.6979774475097656,0.3027740478515625,0
0.6897680282592773,0.3099409103393554,0
0.6817457199096679,0.3099409103393554,0
0.6832786560058594,0.3024009704589843,0
0.7070491790771484,0.3024009704589843,0
0.6985124588012696,0.3124757766723633,0
0.6866689682006836,0.3124757766723633,0
0.6911321640014648,0.3165653228759766,0
0.6987796783447265,0.3165653228759766,0
0.7036863327026367,0.3094602584838867,0
0.7066801071166992,0.3094602584838867,0
0.6990554809570312,0.3183288574218750,0
0.6918228149414062,0.3183288574218750,0
0.6939823150634765,0.3118846893310547,0
0.7181980133056640,0.3118846893310547,0
0.7096818923950196,0.3223148345947265,0
0.6978555679321289,0.3223148345947265,0
0.7022666931152344,0.3258419036865234,0
0.7097614288330077,0.3258419036865234,0
0.7141096115112304,0.3178859710693359,0
0.7165597915649414,0.3178859710693359,0
0.7083148956298828,0.3261148452758789,0
0.7003927230834961,0.3261148452758789,0
0.7020778656005859,0.3186967849731445,0
0.7256778717041016,0.3186967849731445,0
0.7165203094482422,0.3281089782714844,0
0.7040410995483398,0.3281089782714844,0
0.7078462600708008,0.3303960800170898,0
0.7147161483764648,0.3303960800170898,0
0.7186180114746094,0.3212545394897461,0
0.7206722259521484,0.3212545394897461,0
0.7115867614746093,0.3288825988769531,0
0.7033967971801758,0.3288825988769531,0
0.7048931121826172,0.3210680007934570,0
0.7283054351806640,0.3210680007934570,0
0.7187376022338867,0.3300241470336914,0
0.7060403823852539,0.3300241470336914,0
0.7095342636108398,0.3316846847534179,0
0.7161724090576171,0.3316846847534179,0
0.7198551177978515,0.3219783782958984,0
0.7217227935791015,0.3219783782958984,0
0.7123363494873046,0.3295400619506836,0
0.7039438247680664,0.3295400619506836,0
0.7055660247802734,0.3215972900390625,0
0.7287134170532227,0.3215972900390625,0
0.7188972473144531,0.3303434371948242,0
0.7061222076416015,0.3303434371948242,0
0.7096464157104492,0.3315553665161133,0
0.7160745620727539,0.3315553665161133,0
0.7197223663330078,0.3216917037963867,0
0.7216896057128906,0.3216917037963867,0
0.7121698379516601,0.3295326232910156,0
0.7039323806762695,0.3295326232910156,0
0.7057828903198242,0.3218290328979492,0
0.7289886474609375,0.3218290328979492,0
0.7192296981811523,0.3307571411132812,0
0.7181762695312500,0.3241424560546875,0
0.7321226119995117,0.3241424560546875,0
0.7074874877929688,0.3298610687255859,0
0.7101127624511718,0.3237218856811523,0
0.7197298049926758,0.3237218856811523,0
0.7182815551757812,0.3311834335327148,0
0.7077850341796875,0.3311834335327148,0
0.7189544677734375,0.3291217803955078,0
0.7110872268676758,0.3291217803955078,0
0.7195049285888672,0.3254980087280273,0
0.7337860107421875,0.3254980087280273,0
0.7242055892944336,0.3312091827392578,0
0.7219699859619141,0.3183156967163086,0
0.7148426055908202,0.3319925308227539,0
0.7200691223144531,0.3189250946044922,0
0.7210035324096680,0.3318271636962891,0
0.7098089218139648,0.3337629318237305,0
0.7212306976318359,0.3270881652832031,0
0.7259502410888672,0.3326494216918945,0
0.7236757278442383,0.3246379852294922,0
0.7163915634155273,0.3334121704101562,0
0.7215219497680664,0.3201770782470703,0
0.7336435317993164,0.3258350372314453,0
0.7235509872436523,0.3347654342651367,0
0.7220169067382812,0.3277725219726562,0
0.7257940292358398,0.3322998046875000,0
0.7225816726684570,0.3322998046875000,0
0.7191581726074219,0.3245561599731445,0
0.7158868789672851,0.3283166885375977,0
0.7031455993652344,0.3180873870849609,0
0.7099582672119140,0.3216173171997070,0
0.7050630569458007,0.3177309036254883,0
0.7038116455078125,0.3165109634399414,0
0.7038917541503906,0.3031110763549805,0
0.6915418624877929,0.3048803329467774,0
0.6940704345703125,0.2982828140258789,0
0.6944337844848633,0.3030384063720703,0
0.6944337844848633,0.3093709945678711,0
0.7066989898681640,0.3055383682250977,0
0.6885354995727538,0.3109233856201172,0
0.6980638504028320,0.3005304336547852,0
0.6934152603149414,0.3073923110961914,0
0.6934152603149414,0.3140773773193359,0
0.7125715255737305,0.3096593856811523,0
0.7031370162963867,0.3172834396362305,0
0.7046642303466797,0.3146495819091797,0
0.7104475021362304,0.3128940582275391,0
0.6984758377075195,0.3208345413208007,0
0.7115427017211914,0.3174757003784179,0
0.7048862457275390,0.3239650726318359,0
0.7034872055053710,0.3188243865966797,0
0.7136804580688476,0.3263122558593750,0
0.7136690139770507,0.3270486831665039,0
0.7133932113647461,0.3272838592529297,0
0.7182569503784180,0.3273221969604492,0
0.7085243225097656,0.3385351181030273,0
0.7175462722778320,0.3177635192871094,0
0.7087308883666992,0.3300172805786133,0
0.7119220733642578,0.3300001144409180,0
0.7185859680175781,0.3312606811523438,0
0.7112051010131836,0.3296596527099609,0
0.7209806442260742,0.3216991424560547,0
0.7108852386474609,0.3402935028076172,0
0.7199083328247070,0.3248279571533203,0
0.7183238983154296,0.3315416336059570,0
0.7106283187866210,0.3404840469360351,0
0.7198465347290038,0.3207687377929687,0
0.7077341079711914,0.3322483062744140,0
0.7166633605957031,0.3300275802612305,0
0.7214103698730469,0.3302278518676758,0
0.7112268447875977,0.3251214981079101,0
0.7132438659667969,0.3222776412963867,0
0.7107049942016601,0.3406511306762695,0
0.7107049942016601,0.3240858078002929,0
0.7073810577392577,0.3321390151977539,0
0.7177963256835938,0.3254653930664063,0
0.7212186813354492,0.3302433013916016,0
0.7193647384643554,0.3302433013916016,0
0.7202041625976562,0.3253326416015625,0
0.7133708953857422,0.3312578201293945,0
0.7111988067626953,0.3413784027099609,0
0.7204273223876952,0.3214857101440430,0
0.7204273223876952,0.3330190658569336,0
0.7172189712524414,0.3304956436157226,0
0.7223196029663086,0.3313196182250976,0
0.7124805450439453,0.3418430328369140,0
0.7215110778808593,0.3326116561889648,0
0.7202121734619140,0.3335014343261719,0
0.7221210479736327,0.3335758209228515,0
0.7221479415893555,0.3229385375976562,0
0.7145851135253906,0.3276592254638672,0
0.7145851135253906,0.3318391799926758,0
0.7223264694213867,0.3250076293945313,0
0.7140701293945312,0.3432317733764648,0
0.7218618392944336,0.3225585937500000,0
0.7149501800537109,0.3350423812866211,0
0.7171354293823242,0.3350921630859375,0
0.7237426757812500,0.3360334396362304,0
0.7160442352294921,0.3328708648681640,0
0.7235509872436523,0.3260725021362305,0
0.7152431488037109,0.3442565917968750,0
0.7225490570068359,0.3228343963623047,0
0.7152408599853516,0.3355344772338867,0
0.7151458740234374,0.3342407226562500,0
0.7217983245849610,0.3338916778564453,0
0.7106637954711914,0.3270841598510742,0
0.7175256729125976,0.3174837112426758,0
0.7021499633789062,0.3315130233764648,0
0.7076168060302734,0.3168926239013672,0
0.6938444137573242,0.3259037017822266,0
0.7095394134521484,0.3146232604980468,0
0.6985805511474609,0.3141105651855469,0
0.6889875411987304,0.3090185165405273,0
0.6974264144897461,0.3013526916503906,0
0.6877361297607422,0.3207704544067383,0
0.6969486236572265,0.3063491821289062,0
0.6905593872070312,0.3134634017944336,0
0.6900363922119140,0.3059303283691406,0
0.6997833251953125,0.3160989761352539,0
0.6974927902221679,0.3160989761352539,0
0.7038431167602539,0.3137243270874023,0
0.7038431167602539,0.3167856216430664,0
0.6966459274291992,0.3145832061767578,0
0.7003818511962890,0.3120271682739258,0
0.7012224197387695,0.3335174560546875,0
0.7199638366699218,0.3156194686889648,0
0.6989799499511719,0.3261806488037109,0
0.7089511871337890,0.3191007614135742,0
0.7149438858032227,0.3262441635131836,0
0.7144786834716796,0.3158557891845703,0
0.7099914550781250,0.3200185775756836,0
0.7029075622558594,0.3283143997192383,0
0.7275621414184570,0.3225482940673828,0
0.7185562133789062,0.3311948776245117,0
0.7151052474975585,0.3243135452270507,0
0.7114122390747070,0.3243135452270507,0
0.7193338394165039,0.3306301116943359,0
0.7193338394165039,0.3221952438354492,0
0.7140186309814452,0.3315605163574218,0
0.7193510055541992,0.3202852249145507,0
0.7213708877563476,0.3320114135742188,0
0.7143785476684570,0.3336175918579101,0
0.7328475952148438,0.3260679244995117,0
0.7134241104125977,0.3292751312255859,0
0.7210584640502929,0.3233900070190430,0
0.7126607894897461,0.3418916702270507,0
0.7206665039062500,0.3213260650634766,0
0.7152328491210938,0.3340896606445312,0
0.7154588699340820,0.3343877792358398,0
0.7221010208129882,0.3348575592041015,0
0.7142469406127929,0.3295949935913086,0
0.7224357604980468,0.3295949935913086,0
0.7133205413818359,0.3423316955566406,0
0.7133205413818359,0.3288986206054688,0
0.7160676956176758,0.3345359802246093,0
0.7149833679199219,0.3263523101806641,0
0.7226612091064453,0.3354372024536132,0
0.7181985855102538,0.3354372024536132,0
0.7234142303466796,0.3231662750244140,0
0.7110671997070312,0.3332897186279297,0
0.7144432067871094,0.3301231384277344,0
0.7227504730224609,0.3356500625610351,0
0.7152585983276367,0.3267963409423828,0
0.7097665786743164,0.3374158859252930,0
0.7195266723632813,0.3278005599975586,0
0.7261665344238281,0.3233276367187500,0
0.7155126571655274,0.3467313766479492,0
0.7155126571655274,0.3317670822143555,0
0.7243320465087890,0.3363012313842773,0
0.7249540328979492,0.3235095977783203,0
0.7249540328979492,0.3374456405639648,0
0.7280616760253906,0.3285060882568359,0
0.7266918182373047,0.3388755798339844,0
0.7113973617553710,0.3388755798339844,0
0.7181997299194336,0.3331798553466797,0
0.7186798095703125,0.3331798553466797,0
0.7265590667724610,0.3255025863647461,0
0.7325838088989257,0.3255025863647461,0
0.7205480575561524,0.3375617980957031,0
0.7109241485595703,0.3375617980957031,0
0.7188852310180663,0.3296922683715820,0
0.7384695053100586,0.3296922683715820,0
0.7277269363403320,0.3399650573730469,0
0.7125286102294922,0.3399650573730469,0
0.7191324234008789,0.3337635040283203,0
0.7191673278808594,0.3337635040283203,0
0.7266443252563476,0.3254779815673828,0
0.7323045730590820,0.3254779815673828,0
0.7195604324340820,0.3364877700805664,0
0.7087760925292969,0.3364877700805664,0
0.7151750564575196,0.3256496429443359,0
0.7324235916137695,0.3256496429443359,0
0.7196250915527344,0.3322877883911133,0
0.7025299072265625,0.3322877883911133,0
0.7063013076782226,0.3212179183959961,0
0.7030735015869141,0.3212179183959961,0
0.7080934524536132,0.3087335586547851,0
0.7120204925537109,0.3087335586547851,0
0.6982486724853515,0.3180433273315429,0
0.6869127273559570,0.3180433273315429,0
0.6939405441284180,0.3076784133911133,0
0.7122711181640625,0.3076784133911133,0
0.7010478973388672,0.3175518035888672,0
0.6866752624511718,0.3175518035888672,0
0.6932905197143554,0.3113210678100586,0
0.7025321960449219,0.3113210678100586,0
0.7019588470458984,0.3048259735107422,0
0.7092676162719727,0.3048259735107422,0
0.6981279373168945,0.3189943313598633,0
0.6891477584838867,0.3189943313598633,0
0.6982040405273438,0.3119991302490234,0
0.7181591033935547,0.3119991302490234,0
0.7082244873046875,0.3242866516113281,0
0.6950111389160156,0.3242866516113281,0
0.7024423599243164,0.3194223403930664,0
0.7030689239501953,0.3194223403930664,0
0.7122121810913086,0.3138433456420898,0
0.7200239181518554,0.3138433456420898,0
0.7088768005371093,0.3284065246582031,0
0.6998737335205077,0.3284065246582031,0
0.7086759567260742,0.3209260940551757,0
0.7281755447387696,0.3209260940551757,0
0.7177190780639648,0.3324777603149414,0
0.7041114807128906,0.3324777603149414,0
0.7109945297241210,0.3265789031982422,0
0.7107690811157227,0.3265789031982422,0
0.7195873260498047,0.3198577880859375,0
0.7269927978515625,0.3198577880859375,0
0.7151487350463867,0.3336278915405274,0
0.7056884765625000,0.3336278915405274,0
0.7140970230102539,0.3252319335937500,0
0.7327646255493164,0.3252319335937500,0
0.7217971801757812,0.3359979629516601,0
0.7078502655029296,0.3359979629516601,0
0.7145284652709961,0.3293672561645508,0
0.7136987686157227,0.3293672561645508,0
0.7224214553833007,0.3222255706787109,0
0.7297456741333007,0.3222255706787109,0
0.7176773071289062,0.3355596542358398,0
0.7078067779541015,0.3355596542358398,0
0.7160156249999999,0.3268312454223632,0
0.7343387603759766,0.3268312454223632,0
0.7090650558471679,0.3372779846191406,0
0.7371986389160156,0.3263380050659180,0
0.7232196807861327,0.3340284347534180,0
0.7232196807861327,0.3230730056762695,0
0.7232196807861327,0.3326545715332031,0
0.7183645248413085,0.3361959457397461,0
0.7082685470581055,0.3361959457397461,0
0.7164064407348633,0.3491094589233398,0
0.7164064407348633,0.3272140502929687,0
0.7232254028320312,0.3374691009521484,0
0.7090822219848633,0.3374691009521484,0
0.7155973434448242,0.3302707672119141,0
0.7142898559570312,0.3302707672119141,0
0.7232288360595703,0.3231090545654297,0
0.7308958053588867,0.3231090545654297,0
0.7186340332031250,0.3363636016845703,0
0.7083498001098633,0.3363636016845703,0
0.7164916992187500,0.3274887084960937,0
0.7344646453857422,0.3274887084960937,0
0.7233753204345703,0.3378255844116211,0
0.7164138793945313,0.3378255844116211,0
0.7159738540649414,0.3306135177612304,0
0.7144924163818359,0.3306135177612304,0
0.7236934661865234,0.3236532211303711,0
0.7315303802490234,0.3236532211303711,0
0.7194099426269531,0.3370433807373047,0
0.7090919494628906,0.3370433807373047,0
0.7172143936157226,0.3280918121337891,0
0.7350271224975585,0.3280918121337891,0
0.7238525390625000,0.3385156631469726,0
0.7099897384643554,0.3385156631469726,0
0.7166690826416016,0.3313447952270508,0
0.7150554656982422,0.3313447952270508,0
0.7242101669311524,0.3244405746459961,0
0.7322959899902344,0.3244405746459961,0
0.7201395034790039,0.3377723693847656,0
0.7097465515136718,0.3377723693847656,0
0.7177751541137695,0.3289953231811523,0
0.7352731704711913,0.3289953231811523,0
0.7242771148681640,0.3392377853393554,0
0.7104509353637695,0.3392377853393554,0
0.7172327041625977,0.3319993972778320,0
0.7155801773071289,0.3319993972778320,0
0.7250713348388672,0.3253137588500977,0
0.7332818984985351,0.3253137588500977,0
0.7212495803833008,0.3380310058593750,0
0.7106054306030273,0.3380310058593750,0
0.7186368942260742,0.3296333312988281,0
0.7359981536865234,0.3296333312988281,0
0.7251056671142578,0.3399158477783203,0
0.7111501693725586,0.3399158477783203,0
0.7176149368286132,0.3318809509277343,0
0.7151481628417968,0.3318809509277343,0
0.7236236572265625,0.3235095977783203,0
0.7306222915649414,0.3235095977783203,0
0.7170055389404296,0.3338716506958008,0
0.7042785644531250,0.3338716506958008,0
0.7103193283081054,0.3211669921875000,0
0.7250221252441406,0.3211669921875000,0
0.7111827850341796,0.3264616012573242,0
0.6942192077636719,0.3264616012573242,0
0.6986543655395507,0.3148178100585937,0
0.7042362213134765,0.3048666000366211,0
0.7027708053588867,0.3056030273437500,0
0.6929523468017578,0.3056030273437500,0
0.6975671768188476,0.3175655364990234,0
0.6862890243530273,0.3175655364990234,0
0.6940813064575195,0.3083358764648437,0
0.7113275527954102,0.3083358764648437,0
0.7006742477416992,0.3189130783081054,0
0.6871427536010742,0.3189130783081054,0
0.6945516586303710,0.3122354507446289,0
0.6930341720581055,0.3122354507446289,0
0.7035404205322265,0.3069374084472656,0
0.7132930755615234,0.3069374084472656,0
0.7020521163940430,0.3217271804809570,0
0.6920059204101562,0.3217271804809570,0
0.7008647918701172,0.3144086837768554,0
0.7189304351806640,0.3144086837768554,0
0.7091806411743163,0.3262784957885742,0
0.6963781356811524,0.3262784957885742,0
0.7042282104492187,0.3202577590942383,0
0.7124410629272461,0.3202577590942383,0
0.7135402679443359,0.3153076171875000,0
0.7232934951782226,0.3153076171875000,0
0.7119861602783203,0.3295927047729492,0
0.7015256881713867,0.3295927047729492,0
0.7097414016723632,0.3219068527221680,0
0.7268531799316406,0.3219068527221680,0
0.7169082641601562,0.3328594207763672,0
0.7039329528808593,0.3328594207763672,0
0.7113172531127929,0.3262281417846680,0
0.7094175338745117,0.3262281417846680,0
0.7198207855224609,0.3208494186401367,0
0.7295837402343750,0.3208494186401367,0
0.7181201934814453,0.3344673156738281,0
0.7073799133300781,0.3344673156738281,0
0.7151676177978515,0.3261560440063476,0
0.7316287994384766,0.3261560440063476,0
0.7216117858886718,0.3363155364990234,0
0.7083744049072266,0.3363155364990234,0
0.7155715942382812,0.3291463851928711,0
0.7129989624023437,0.3291463851928711,0
0.7230360031127929,0.3235239028930664,0
0.7326192855834961,0.3235239028930664,0
0.7210985183715820,0.3363441467285156,0
0.7101133346557617,0.3363441467285156,0
0.7174163818359375,0.3278514862060547,0
0.7330472946166992,0.3278514862060547,0
0.7232975006103516,0.3374364852905273,0
0.7100458145141602,0.3374364852905273,0
0.7170742034912109,0.3301191329956055,0
0.7143339157104492,0.3301191329956055,0
0.7242382049560546,0.3244571685791016,0
0.7338329315185547,0.3244571685791016,0
0.7221914291381836,0.3369318008422851,0
0.7110271453857422,0.3369318008422851,0
0.7181316375732422,0.3283229827880859,0
0.7336429595947266,0.3283229827880859,0
0.7239412307739258,0.3377454757690430,0
0.7106529235839844,0.3377454757690430,0
0.7176532745361328,0.3303348541259766,0
0.7147447586059570,0.3303348541259766,0
0.7249225616455078,0.3250270843505859,0
0.7347816467285156,0.3250270843505859,0
0.7231161117553710,0.3374673843383789,0
0.7119466781616210,0.3374673843383789,0
0.7189556121826172,0.3290668487548828,0
0.7341728210449219,0.3290668487548828,0
0.7248350143432617,0.3385116577148438,0
0.7162324905395507,0.3385116577148438,0
0.7188531875610351,0.3313287734985351,0
0.7257659912109374,0.3313287734985351,0
0.7261636734008788,0.3262601852416992,0
0.7362190246582031,0.3262601852416992,0
0.7246318817138672,0.3386512756347656,0
0.7273206710815430,0.3386512756347656,0
0.7203592300415039,0.3303686141967773,0
0.7354797363281250,0.3303686141967773,0
0.7262969970703125,0.3396108627319336,0
0.7134258270263671,0.3396108627319336,0
0.7203712463378906,0.3325950622558594,0
0.7173654556274414,0.3325950622558594,0
0.7277601242065429,0.3276283264160156,0
0.7379442214965820,0.3276283264160156,0
0.7263908386230469,0.3398666381835938,0
0.7150920867919922,0.3398666381835938,0
0.7218126296997071,0.3315765380859375,0
0.7367643356323242,0.3315765380859375,0
0.7277223587036132,0.3407369613647461,0
0.7148986816406250,0.3407369613647461,0
0.7217880249023437,0.3336587905883789,0
0.7186065673828125,0.3336587905883789,0
0.7288181304931640,0.3289787292480469,0
0.7388854980468750,0.3289787292480469,0
0.7274785995483398,0.3404359817504883,0
0.7159132003784180,0.3404359817504883,0
0.7220649719238281,0.3315015792846679,0
0.7356800079345703,0.3315015792846679,0
0.7259456634521484,0.3388034820556641,0
0.7119815826416015,0.3388034820556641,0
0.7172029495239257,0.3287572860717773,0
0.7120004653930664,0.3287572860717773,0
0.7198945999145507,0.3204557418823242,0
0.7272697448730469,0.3204557418823242,0
0.7130956649780273,0.3263631820678711,0
0.6982807159423828,0.3263631820678711,0
0.7016939163208008,0.3131607055664062,0
0.7131740570068359,0.3131607055664062,0
0.7025007247924805,0.3184587478637695,0
0.6883678436279297,0.3184587478637695,0
0.6940086364746093,0.3094402313232422,0
0.6900341033935546,0.3094402313232422,0
0.6996580123901367,0.3046182632446289,0
0.7095926284790038,0.3046182632446289,0
0.6985868453979492,0.3156154632568359,0
0.6873802185058594,0.3156154632568359,0
0.6936893463134766,0.3077899932861328,0
0.7078388214111327,0.3077899932861328,0
0.6997283935546875,0.3171014785766602,0
0.6878614425659180,0.3171014785766602,0
0.6952039718627929,0.3112089157104492,0
0.6926570892333984,0.3112089157104492,0
0.7035421371459961,0.3085876464843750,0
0.7147647857666015,0.3085876464843750,0
0.7046487808227538,0.3212459564208984,0
0.6941350936889649,0.3212459564208984,0
0.7010387420654297,0.3146272659301758,0
0.7156488418579101,0.3146272659301758,0
0.7082731246948242,0.3246883392333984,0
0.6967489242553710,0.3246883392333984,0
0.7043277740478515,0.3191957473754883,0
0.7017385482788085,0.3191957473754883,0
0.7127901077270508,0.3169401168823242,0
0.7241838455200195,0.3169401168823242,0
0.7139076232910156,0.3291406631469727,0
0.7030574798583984,0.3291406631469727,0
0.7096178054809570,0.3221506118774414,0
0.7238456726074218,0.3221506118774414,0
0.7164281845092774,0.3315605163574218,0
0.7046579360961914,0.3315605163574218,0
0.7118299484252929,0.3254493713378906,0
0.7086118698120117,0.3254493713378906,0
0.7193962097167969,0.3225837707519531,0
0.7304037094116210,0.3225837707519531,0
0.7195690155029296,0.3336370468139648,0
0.7081409454345703,0.3336370468139648,0
0.7141553878784179,0.3258235931396484,0
0.7276468276977539,0.3258235931396484,0
0.7199243545532227,0.3343339920043945,0
0.7078285217285156,0.3343339920043945,0
0.7145936965942382,0.3276706695556640,0
0.7110179901123047,0.3276706695556640,0
0.7215637207031250,0.3243844985961914,0
0.7323572158813476,0.3243844985961914,0
0.7214807510375977,0.3349731445312500,0
0.7097957611083984,0.3349731445312500,0
0.7154371261596679,0.3268741607666015,0
0.7285079956054688,0.3268741607666015,0
0.7207912445068360,0.3349393844604492,0
0.7086496353149414,0.3349393844604492,0
0.7152906417846679,0.3279979705810547,0
0.7114900588989258,0.3279979705810547,0
0.7219585418701172,0.3248474121093750,0
0.7326971054077148,0.3248474121093750,0
0.7217817306518555,0.3349754333496094,0
0.7100366592407227,0.3349754333496094,0
0.7155321121215820,0.3268621444702148,0
0.7283895492553710,0.3268621444702148,0
0.7209457397460938,0.3348970413208008,0
0.7089551925659180,0.3348970413208008,0
0.7155023574829101,0.3280958175659179,0
0.7118024826049805,0.3280958175659179,0
0.7224861145019531,0.3253246307373047,0
0.7333448410034179,0.3253246307373047,0
0.7225107192993164,0.3356111526489258,0
0.7109373092651367,0.3356111526489258,0
0.7164442062377929,0.3277542114257813,0
0.7292089462280273,0.3277542114257813,0
0.7221639633178710,0.3358932495117187,0
0.7103359222412109,0.3358932495117187,0
0.7170598983764648,0.3293821334838867,0
0.7133588790893555,0.3293821334838867,0
0.7239915847778320,0.3268650054931641,0
0.7349813461303710,0.3268650054931641,0
0.7242862701416015,0.3370313644409180,0
0.7127574920654297,0.3370313644409180,0
0.7180183410644531,0.3292957305908203,0
0.7306949615478515,0.3292957305908203,0
0.7238033294677734,0.3373037338256836,0
0.7120227813720703,0.3373037338256836,0
0.7187925338745117,0.3308040618896484,0
0.7150342941284179,0.3308040618896484,0
0.7256452560424804,0.3285055160522461,0
0.7366973876953125,0.3285055160522461,0
0.7260108947753906,0.3384263992309570,0
0.7143590927124023,0.3384263992309570,0
0.7194145202636718,0.3305334091186523,0
0.7318536758422851,0.3305334091186523,0
0.7250873565673828,0.3383291244506836,0
0.7131294250488281,0.3383291244506836,0
0.7197097778320313,0.3313699722290039,0
0.7152528762817383,0.3313699722290039,0
0.7252933502197265,0.3278205871582031,0
0.7353687286376953,0.3278205871582031,0
0.7233364105224609,0.3351591110229492,0
0.7095846176147461,0.3351591110229492,0
0.7122877120971679,0.3233133316040039,0
0.7219923019409179,0.3233133316040039,0
0.7120033264160156,0.3252571105957031,0
0.6964056015014648,0.3252571105957031,0
0.6997964859008788,0.3128940582275391,0
0.6925746917724609,0.3128940582275391,0
0.7008745193481445,0.3065128326416016,0
0.7101041793823242,0.3065128326416016,0
0.6981101989746094,0.3137243270874023,0
0.6851383209228515,0.3137243270874023,0
0.6893451690673827,0.3046073913574219,0
0.7011955261230468,0.3046073913574219,0
0.6945173263549804,0.3119230270385742,0
0.6827121734619140,0.3119230270385742,0
0.6895162582397460,0.3054542541503906,0
0.6854198455810546,0.3054542541503906,0
0.6964868545532227,0.3036157608032227,0
0.7081151962280273,0.3036157608032227,0
0.6977891921997070,0.3140195846557617,0
0.6862873077392578,0.3140195846557617,0
0.6916185379028320,0.3070810317993164,0
0.7045698165893555,0.3070810317993164,0
0.6988906860351562,0.3161172866821289,0
0.6880754470825196,0.3161172866821289,0
0.6958917617797852,0.3111385345458984,0
0.6924779891967773,0.3111385345458984,0
0.7042139053344726,0.3105989456176758,0
0.7166204452514648,0.3105989456176758,0
0.7067647933959961,0.3217918395996094,0
0.6955450057983398,0.3217918395996094,0
0.7011566162109375,0.3153934478759766,0
0.7139865875244140,0.3153934478759766,0
0.6999755859375000,0.3294273376464844,0
0.7215505599975586,0.3167730331420898,0
0.7007720947265624,0.3257005691528320,0
0.7135906219482422,0.3257005691528320,0
0.7061285018920899,0.3296848297119140,0
0.7137113571166992,0.3296848297119140,0
0.7168819427490234,0.3274234771728515,0
0.7173116683959960,0.3274234771728515,0
0.7149044036865234,0.3325338363647461,0
0.7061502456665039,0.3325338363647461,0
0.7068798065185546,0.3226438522338867,0
0.7283145904541015,0.3226438522338867,0
0.7190557479858398,0.3308847427368164,0
0.7063819885253906,0.3308847427368164,0
0.7111364364624023,0.3340055465698242,0
0.7181339263916016,0.3340055465698242,0
0.7209554672241211,0.3305534362792968,0
0.7210041046142578,0.3305534362792968,0
0.7178449630737305,0.3349576950073242,0
0.7085449218750000,0.3349576950073242,0
0.7089838027954102,0.3243713378906250,0
0.7302743911743164,0.3243713378906250,0
0.7206516265869141,0.3321504592895508,0
0.7076093673706054,0.3321504592895508,0
0.7121698379516601,0.3348649978637695,0
0.7190729141235351,0.3348649978637695,0
0.7216621398925781,0.3309082031250000,0
0.7215471267700195,0.3309082031250000,0
0.7180286407470703,0.3350641250610352,0
0.7084127426147461,0.3350641250610352,0
0.7087646484375000,0.3240909576416016,0
0.7301319122314452,0.3240909576416016,0
0.7204032897949219,0.3318208694458007,0
0.7071052551269531,0.3318208694458007,0
0.7115232467651367,0.3344718933105469,0
0.7184286117553711,0.3344718933105469,0
0.7212324142456055,0.3303731918334961,0
0.7212844848632812,0.3303731918334961,0
0.7175462722778320,0.3347299575805664,0
0.7081409454345703,0.3347299575805664,0
0.7304157257080078,0.3241716384887695,0
0.7144901275634765,0.3324897766113281,0
0.7208930969238281,0.3323049545288086,0
0.7077735900878906,0.3323049545288086,0
0.7123523712158203,0.3354354858398437,0
0.7193807601928711,0.3354354858398437,0
0.7224866867065429,0.3314443588256836,0
0.7227579116821289,0.3314443588256836,0
0.7189739227294921,0.3362405776977539,0
0.7096836090087890,0.3362405776977539,0
0.7104909896850585,0.3259231567382813,0
0.7324258804321289,0.3259231567382813,0
0.7228317260742188,0.3342029571533203,0
0.7229478836059570,0.3266418457031250,0
0.7241764068603516,0.3281324386596680,0
0.7248035430908203,0.3332365036010742,0
0.7157278060913086,0.3282354354858398,0
0.7224906921386719,0.3361232757568359,0
0.7185733795166015,0.3359064102172851,0
0.7135339736938476,0.3299268722534179,0
0.7371683120727539,0.3282857894897461,0
0.7161912918090820,0.3388652801513672,0
0.7262912750244140,0.3343236923217773,0
0.7171091079711914,0.3291824340820312,0
0.7228431701660156,0.3359739303588867,0
0.7117818832397461,0.3401899337768555,0
0.7211717605590821,0.3275671005249023,0
0.7288381576538085,0.3220607757568359,0
0.7078657150268555,0.3301202774047852,0
0.7106546401977539,0.3191545486450195,0
0.6978401184082031,0.3336473464965820,0
0.6985771179199218,0.3143199920654297,0
0.6863153457641601,0.3143199920654297,0
0.6959426879882812,0.2958818435668945,0
0.6821800231933594,0.3106607437133789,0
0.6954574584960938,0.3125610351562500,0
0.6954574584960938,0.3111734390258789,0
0.6981393814086914,0.3029834747314453,0
0.6911888122558594,0.3125284194946289,0
0.6833627700805663,0.3164033889770508,0
0.6964885711669921,0.3054153442382813,0
0.6964885711669921,0.3116071701049805,0
0.6890613555908203,0.3155445098876953,0
0.7004991531372070,0.3022613525390625,0
0.7017448425292968,0.3122205734252930,0
0.7006868362426758,0.3183700561523438,0
0.7006868362426758,0.3173532485961914,0
0.6989158630371094,0.3130743026733399,0
0.7064140319824218,0.3156045913696289,0
0.7193864822387696,0.3131561279296875,0
0.7094089508056640,0.3232990264892578,0
0.7018964767456054,0.3167106628417969,0
0.7071241378784180,0.3264266967773438,0
0.7005552291870117,0.3178516387939453,0
0.7079452514648438,0.3263660430908203,0
0.7147733688354492,0.3228000640869140,0
0.7274488449096680,0.3203390121459961,0
0.7048021316528320,0.3298610687255859,0
0.7177333831787109,0.3264558792114258,0
0.7134761810302734,0.3317630767822266,0
0.7160190582275391,0.3360019683837890,0
0.7274368286132812,0.3224950790405273,0
0.7185304641723632,0.3306884765625000,0
0.7186111450195313,0.3261388778686523,0
0.7201532363891602,0.3321098327636718,0
0.7201641082763671,0.3321098327636718,0
0.7219093322753906,0.3242900848388672,0
0.7173580169677735,0.3314043045043945,0
0.7070732116699219,0.3367309570312500,0
0.7190752029418945,0.3255311965942383,0
0.7063819885253906,0.3240108489990234,0
0.7102500915527343,0.3334321975708008,0
0.7199375152587890,0.3277908325195312,0
0.7105430603027344,0.3277908325195312,0
0.7168539047241210,0.3323627471923828,0
0.7168539047241210,0.3308647155761719,0
0.7135007858276367,0.3250877380371094,0
0.7186849594116210,0.3306850433349609,0
0.7100595474243164,0.3419734954833984,0
0.7170650482177734,0.3319375991821289,0
0.7201663970947265,0.3279848098754883,0
0.7151573181152343,0.3331592559814453,0
0.7177946090698242,0.3198560714721679,0
0.7150606155395508,0.3317630767822266,0
0.7097694396972656,0.3265027999877930,0
0.7119535446166992,0.3254774093627930,0
0.7119535446166992,0.3352312088012695,0
0.7224248886108399,0.3298324584960937,0
0.7130762100219726,0.3479284286499023,0
0.7200296401977538,0.3217712402343750,0
0.7085638046264648,0.3338619232177734,0
0.7117601394653320,0.3285129547119141,0
0.7225038528442382,0.3341726303100586,0
0.7139797210693359,0.3371006011962890,0
0.7244602203369140,0.3274263381958007,0
0.7147756576538086,0.3313859939575195,0
0.7147756576538086,0.3279527664184570,0
0.7112829208374023,0.3273668289184570,0
0.7190923690795898,0.3207664489746094,0
0.7112691879272460,0.3356254577636719,0
0.7220500946044922,0.3381872177124023,0
0.7256023406982421,0.3361610412597656,0
0.7145296096801758,0.3273908615112305,0
0.7176452636718750,0.3265794754028320,0
0.7062732696533203,0.3361227035522461,0
0.7260131835937500,0.3219268798828125,0
0.6969915390014648,0.3248622894287109,0
0.7097482681274414,0.3145545959472656,0
0.7045480728149414,0.3165893554687500,0
0.7011978149414062,0.3009321212768555,0
0.6983493804931641,0.3050874710083007,0
0.6934175491333008,0.3104026794433594,0
0.6816993713378906,0.3016376495361328,0
0.6937837600708008,0.3093406677246094,0
0.6807947158813477,0.3093406677246094,0
0.6956399917602539,0.3120374679565430,0
0.6956399917602539,0.3102670669555664,0
0.6857837677001953,0.3031076431274414,0
0.6902326583862305,0.3120471954345703,0
0.6834680557250976,0.3036981582641601,0
0.7064060211181641,0.3036981582641601,0
0.6986949920654296,0.3134473800659179,0
0.6986949920654296,0.3073328018188476,0
0.7028131484985352,0.3165699005126953,0
0.7032938003540039,0.3326974868774414,0
0.7060232162475586,0.3108776092529297,0
0.6929386138916015,0.3198011398315430,0
0.6935440063476562,0.3125804901123047,0
0.7085008621215820,0.3224029541015625,0
0.7090730667114258,0.3224029541015625,0
0.7129817962646484,0.3265239715576172,0
0.7129817962646484,0.3251123428344727,0
0.7037698745727539,0.3189817428588867,0
0.7014404296875000,0.3271144866943359,0
0.7020320892333984,0.3196586608886718,0
0.7159732818603516,0.3139188766479492,0
0.7292730331420898,0.3223531723022461,0
0.7079103469848632,0.3320600509643555,0
0.7186975479125977,0.3255065917968750,0
0.7087326049804688,0.3447000503540039,0
0.7162033081054687,0.3181177139282226,0
0.7047414779663086,0.3302621841430664,0
0.7080121994018554,0.3253870010375977,0
0.7185813903808593,0.3308675765991211,0
0.7096149444580078,0.3335363388061524,0
0.7207746505737305,0.3229631423950195,0
0.7098506927490235,0.3454816818237305,0
0.7201807022094726,0.3238952636718750,0
0.7052095413208007,0.3307216644287109,0
0.7056427001953125,0.3227680206298828,0
0.7187049865722656,0.3308767318725586,0
0.7183856964111328,0.3274669647216797,0
0.7204805374145508,0.3225311279296875,0
0.7065198898315429,0.3308853149414062,0
0.7093317031860351,0.3234930038452148,0
0.7165403366088867,0.3181858062744141,0
0.7048278808593750,0.3303863525390625,0
0.7187805175781250,0.3161607742309570,0
0.7061588287353515,0.3310489654541016,0
0.7098964691162110,0.3338132858276367,0
0.7205760955810546,0.3186447143554688,0
0.7217164993286133,0.3266916275024414,0
0.7180583953857421,0.3195653915405273,0
0.7062795639038085,0.3317419052124023,0
0.7163755416870117,0.3272998809814453,0
0.7206150054931640,0.3263483047485352,0
0.7118986129760742,0.3441226959228516,0
0.7118986129760742,0.3333703994750977,0
0.7226303100585937,0.3205919265747070,0
0.7124542236328125,0.3264650344848632,0
0.7228237152099609,0.3264650344848632,0
0.7200468063354492,0.3335557937622070,0
0.7084207534790039,0.3335557937622070,0
0.7184160232543945,0.3290559768676758,0
0.7120857238769531,0.3290559768676758,0
0.7224357604980468,0.3279859542846680,0
0.7353693008422851,0.3279859542846680,0
0.7252521514892578,0.3348913192749023,0
0.7112932205200195,0.3348913192749023,0
0.7140747070312500,0.3279584884643554,0
0.7243497848510742,0.3279584884643554,0
0.7216993331909179,0.3348140716552734,0
0.7098003387451172,0.3348140716552734,0
0.7197710037231445,0.3301551818847656,0
0.7130270004272461,0.3301551818847656,0
0.7229267120361328,0.3281089782714844,0
0.7350185394287109,0.3281089782714844,0
0.7237312316894531,0.3328668594360352,0
0.7080568313598633,0.3328668594360352,0
0.7088476181030273,0.3224184036254883,0
0.7166210174560547,0.3224184036254883,0
0.7109556198120117,0.3238838195800781,0
0.6953933715820312,0.3238838195800781,0
0.7018575668334961,0.3132568359375000,0
0.6918416976928711,0.3132568359375000,0
0.6992797851562500,0.3070930480957031,0
0.7099227905273438,0.3070930480957031,0
0.6981588363647461,0.3108226776123047,0
0.6828769683837891,0.3108226776123047,0
0.6848470687866210,0.3025611877441406,0
0.6944200515747070,0.3025611877441406,0
0.6798448562622070,0.3011598587036133,0
0.6900964736938476,0.3082569122314453,0
0.6941591262817383,0.3037702560424805,0
0.7075378417968750,0.3037702560424805,0
0.6977737426757812,0.3027082443237304,0
0.6977737426757812,0.3111333847045898,0
0.6877149581909180,0.3055366516113281,0
0.6985422134399414,0.3055366516113281,0
0.6970024108886719,0.3137672424316406,0
0.6863182067871093,0.3137672424316406,0
0.6977703094482421,0.3114578247070313,0
0.6922084808349609,0.3114578247070313,0
0.7032812118530273,0.3119962692260742,0
0.7172653198242187,0.3119962692260742,0
0.7081089019775391,0.3201032638549804,0
0.6950494766235351,0.3201032638549804,0
0.6986040115356446,0.3150100708007812,0
0.7093969345092773,0.3150100708007812,0
0.7079349517822265,0.3230409622192383,0
0.6969966888427734,0.3230409622192383,0
0.7083841323852539,0.3203910827636718,0
0.7023719787597656,0.3203910827636718,0
0.7128765106201171,0.3202526092529297,0
0.7264120101928710,0.3202526092529297,0
0.7170387268066406,0.3275075912475586,0
0.7033584594726562,0.3275075912475586,0
0.7063173294067383,0.3216562271118164,0
0.7166313171386719,0.3216562271118164,0
0.7147098541259765,0.3287023544311523,0
0.7032142639160156,0.3287023544311523,0
0.7140249252319336,0.3251941680908203,0
0.7075384140014648,0.3251941680908203,0
0.7173877716064453,0.3240394592285156,0
0.7305759429931641,0.3240394592285156,0
0.7208908081054687,0.3304853439331055,0
0.7065776824951172,0.3304853439331055,0
0.7092327117919922,0.3240074157714843,0
0.7191312789916992,0.3240074157714843,0
0.7170032501220703,0.3304498672485351,0
0.7051872253417969,0.3304498672485351,0
0.7159320831298828,0.3265726089477539,0
0.7091234207153320,0.3265726089477539,0
0.7186019897460937,0.3250831604003906,0
0.7316408157348633,0.3250831604003906,0
0.7217382431030274,0.3311061859130859,0
0.7073261260986328,0.3311061859130859,0
0.7098495483398437,0.3244016647338867,0
0.7195678710937500,0.3244016647338867,0
0.7172430038452148,0.3306238174438477,0
0.7053422927856445,0.3306238174438477,0
0.7160327911376952,0.3265256881713867,0
0.7091154098510742,0.3265256881713867,0
0.7184789657592773,0.3249973297119140,0
0.7314731597900390,0.3249973297119140,0
0.7218801498413085,0.3311107635498047,0
0.7072946548461914,0.3311107635498047,0
0.7098827362060547,0.3244571685791016,0
0.7196983337402344,0.3244571685791016,0
0.7175565719604492,0.3310598373413086,0
0.7055379867553710,0.3310598373413086,0
0.7167509078979492,0.3273038864135742,0
0.7099004745483398,0.3273038864135742,0
0.7191364288330078,0.3258110046386719,0
0.7324487686157226,0.3258110046386719,0
0.7230291366577148,0.3321653366088867,0
0.7085460662841797,0.3321653366088867,0
0.7112091064453124,0.3257463455200195,0
0.7211151123046875,0.3257463455200195,0
0.7190042495727539,0.3325424194335938,0
0.7072299957275391,0.3325424194335938,0
0.7183605194091797,0.3288494110107422,0
0.7115272521972656,0.3288494110107422,0
0.7205949783325195,0.3273559570312500,0
0.7339490890502930,0.3273559570312500,0
0.7247497558593750,0.3336799621582031,0
0.7101293563842773,0.3336799621582031,0
0.7127454757690429,0.3272363662719727,0
0.7227155685424804,0.3272363662719727,0
0.7206882476806641,0.3341817855834961,0
0.7087234497070313,0.3341817855834961,0
0.7199792861938477,0.3303371429443359,0
0.7130624771118164,0.3303371429443359,0
0.7218749999999999,0.3287687301635742,0
0.7352354049682617,0.3287687301635742,0
0.7262483596801758,0.3349937438964843,0
0.7115861892700195,0.3349937438964843,0
0.7141633987426758,0.3284248352050781,0
0.7239097595214844,0.3284248352050781,0
0.7216352462768555,0.3351058959960938,0
0.7092401504516601,0.3351058959960938,0
0.7199003219604492,0.3299732208251953,0
0.7119878768920899,0.3299732208251953,0
0.7191753387451172,0.3257503509521484,0
0.7305805206298828,0.3257503509521484,0
0.7195901870727539,0.3279630661010742,0
0.7022054672241210,0.3279630661010742,0
0.7014369964599609,0.3156961441040039,0
0.7072763442993164,0.3156961441040039,0
0.7019462585449219,0.3169670104980469,0
0.6869602203369141,0.3169670104980469,0
0.6957532882690429,0.3086431503295898,0
0.6868915557861328,0.3086431503295898,0
0.6940841674804688,0.3045192718505859,0
0.7062566757202148,0.3045192718505859,0
0.6970270156860351,0.3095483779907227,0
0.6818967819213867,0.3095483779907227,0
0.6843921661376953,0.3027894973754883,0
0.6940629959106445,0.3027894973754883,0
0.6922885894775390,0.3100885391235351,0
0.6807334899902343,0.3100885391235351,0
0.6923166275024414,0.3066473007202148,0
0.6955078124999999,0.3066473007202148,0
0.6947021484375000,0.3057580947875976,0
0.7087692260742188,0.3057580947875976,0
0.7008310317993164,0.3132877349853516,0
0.6870094299316406,0.3132877349853516,0
0.6905536651611328,0.3086208343505859,0
0.7013036727905273,0.3086208343505859,0
0.7004779815673828,0.3175758361816406,0
0.6899465560913086,0.3175758361816406,0
0.7021362304687500,0.3153436660766601,0
0.6960268020629883,0.3153436660766601,0
0.7052965164184570,0.3150815963745117,0
0.7196868896484375,0.3150815963745117,0
0.7117641448974609,0.3227199554443359,0
0.6979110717773437,0.3227199554443359,0
0.7011978149414062,0.3177406311035156,0
0.7116405487060546,0.3177406311035156,0
0.7105241775512695,0.3261491775512695,0
0.6997117996215820,0.3261491775512695,0
0.7113973617553710,0.3230867385864258,0
0.7047449111938476,0.3230867385864258,0
0.7133491516113281,0.3219165802001953,0
0.7271015167236328,0.3219165802001953,0
0.7188217163085937,0.3285953521728516,0
0.7043203353881836,0.3285953521728516,0
0.7070531845092773,0.3227108001708984,0
0.7108612060546875,0.3206914901733398,0
0.7153438568115235,0.3300779342651367,0
0.7037715911865234,0.3300779342651367,0
0.7151527404785156,0.3262979507446289,0
0.7080476760864257,0.3262979507446289,0
0.7161317825317383,0.3243335723876953,0
0.7295482635498046,0.3243335723876953,0
0.7209348678588867,0.3303485870361328,0
0.7063379287719727,0.3303485870361328,0
0.7087182998657227,0.3240680694580078,0
0.7182575225830078,0.3240680694580078,0
0.7164613723754882,0.3310340881347656,0
0.7052490234375000,0.3310340881347656,0
0.7159429550170898,0.3268541336059570,0
0.7086204528808594,0.3268541336059570,0
0.7165140151977539,0.3245653152465820,0
0.7296804428100586,0.3245653152465820,0
0.7209926605224609,0.3303348541259766,0
0.7062417984008789,0.3303348541259766,0
0.7085821151733398,0.3238861083984375,0
0.7180337905883789,0.3238861083984375,0
0.7161764144897461,0.3309047698974609,0
0.7051963806152344,0.3309047698974609,0
0.7158365249633789,0.3269336700439453,0
0.7085832595825196,0.3269336700439453,0
0.7164939880371094,0.3245704650878906,0
0.7298377990722656,0.3245704650878906,0
0.7211740493774413,0.3306118011474609,0
0.7066944122314452,0.3306118011474609,0
0.7091772079467773,0.3245487213134766,0
0.7188938140869140,0.3245487213134766,0
0.7172332763671875,0.3317916870117187,0
0.7063287734985352,0.3317916870117187,0
0.7172779083251953,0.3282114028930664,0
0.7197011947631836,0.3282114028930664,0
0.7178655624389648,0.3259775161743164,0
0.7313278198242187,0.3259775161743164,0
0.7227275848388671,0.3321418762207031,0
0.7213079452514648,0.3321418762207031,0
0.7109825134277343,0.3261302947998047,0
0.7206321716308594,0.3261302947998047,0
0.7190179824829102,0.3333658218383789,0
0.7084779739379883,0.3333658218383789,0
0.7188766479492187,0.3299314498901367,0
0.7116142272949219,0.3299314498901367,0
0.7193984985351562,0.3274618148803711,0
0.7328201293945312,0.3274618148803711,0
0.7243274688720703,0.3336112976074219,0
0.7099290847778320,0.3336112976074219,0
0.7124828338623047,0.3274852752685547,0
0.7220970153808594,0.3274852752685547,0
0.7204473495483398,0.3346584320068359,0
0.7099851608276367,0.3346584320068359,0
0.7131557464599609,0.3312767028808594,0
0.7227664947509765,0.3312767028808594,0
0.7207500457763671,0.3287401199340820,0
0.7341253280639648,0.3287401199340820,0
0.7256401062011718,0.3346910476684570,0
0.7111375808715820,0.3346910476684570,0
0.7134687423706054,0.3281873703002929,0
0.7225982666015625,0.3281873703002929,0
0.7203975677490234,0.3343883514404297,0
0.7091474533081055,0.3343883514404297,0
0.7182918548583984,0.3287269592285156,0
0.7091932296752930,0.3287269592285156,0
0.7148288726806641,0.3224212646484375,0
0.7256984710693359,0.3224212646484375,0
0.7140489578247070,0.3229946136474609,0
0.6959095001220703,0.3229946136474609,0
0.6950305938720703,0.3109949111938476,0
0.7013025283813477,0.3109949111938476,0
0.6971540451049805,0.3136819839477539,0
0.6847892761230469,0.3136819839477539,0
0.6934862136840820,0.3076829910278320,0
0.6851675033569335,0.3076829910278320,0
0.6920860290527343,0.3037422180175781,0
0.7050945281982421,0.3037422180175781,0
0.6961790084838867,0.3093132019042968,0
0.6816679000854492,0.3093132019042968,0
0.6842159271240235,0.3031980514526367,0
0.6939405441284180,0.3031980514526367,0
0.6925409317016601,0.3109170913696289,0
0.6826789855957031,0.3109170913696289,0
0.6933013916015625,0.3083696365356445,0
0.6865242004394531,0.3083696365356445,0
0.6950769424438477,0.3068389892578125,0
0.7094215393066406,0.3068389892578125,0
0.7014564514160156,0.3142673492431641,0
0.6879861831665038,0.3142673492431641,0
0.6914943695068360,0.3098413467407227,0
0.7019765853881835,0.3098413467407227,0
0.7013345718383789,0.3187614440917969,0
0.6921781539916992,0.3187614440917969,0
0.7032920837402343,0.3172147750854492,0
0.6968141555786133,0.3172147750854492,0
0.7056873321533202,0.3159507751464843,0
0.7200490951538085,0.3159507751464843,0
0.7117990493774414,0.3232904434204101,0
0.6982086181640624,0.3232904434204101,0
0.7014415740966796,0.3184770584106445,0
0.7116456985473633,0.3184770584106445,0
0.7105957031250000,0.3267768859863281,0
0.7011634826660156,0.3267768859863281,0
0.7117012023925781,0.3245086669921875,0
0.7047397613525390,0.3245086669921875,0
0.7132375717163085,0.3222816467285156,0
0.7269464492797851,0.3222816467285156,0
0.7179565429687500,0.3284574508666992,0
0.7038545608520508,0.3284574508666992,0
0.7160196304321289,0.3227462768554688,0
0.7097957611083984,0.3227462768554688,0
0.7145124435424804,0.3300910949707031,0
0.7045377731323242,0.3300910949707031,0
0.7148729324340820,0.3271516799926757,0
0.7075046539306641,0.3271516799926757,0
0.7157197952270508,0.3242465972900391,0
0.7290727615356445,0.3242465972900391,0
0.7197664260864257,0.3299577713012695,0
0.7054281234741211,0.3299577713012695,0
0.7077226638793945,0.3238271713256836,0
0.7171211242675781,0.3238271713256836,0
0.7154016494750977,0.3308864593505859,0
0.7053028106689453,0.3308864593505859,0
0.7153690338134765,0.3276592254638672,0
0.7077850341796875,0.3276592254638672,0
0.7159360885620117,0.3244657516479492,0
0.7292192459106445,0.3244657516479492,0
0.7196823120117187,0.3299846649169922,0
0.7051563262939453,0.3299846649169922,0
0.7075681686401367,0.3236835479736328,0
0.7168230056762696,0.3236835479736328,0
0.7151578903198242,0.3307519912719726,0
0.7051769256591797,0.3307519912719726,0
0.7151887893676757,0.3276586532592773,0
0.7076992034912110,0.3276586532592773,0
0.7159126281738281,0.3245847702026367,0
0.7292844772338867,0.3245847702026367,0
0.7197961807250977,0.3303022384643555,0
0.7055007934570312,0.3303022384643555,0
0.7080888748168945,0.3243055343627930,0
0.7175748825073242,0.3243055343627930,0
0.7160591125488281,0.3316108703613281,0
0.7062509536743163,0.3316108703613281,0
0.7163766860961914,0.3287652969360351,0
0.7089660644531249,0.3287652969360351,0
0.7172807693481446,0.3258596420288086,0
0.7307825088500977,0.3258596420288086,0
0.7214435577392578,0.3316612243652344,0
0.7072076797485352,0.3316612243652344,0
0.7096973419189453,0.3258327484130859,0
0.7192485809326171,0.3258327484130859,0
0.7177923202514648,0.3331506729125976,0
0.7079933166503906,0.3331506729125976,0
0.7181831359863281,0.3304075241088867,0
0.7107559204101562,0.3304075241088867,0
0.7190877914428710,0.3273651123046875,0
0.7325843811035156,0.3273651123046875,0
0.7231046676635742,0.3331535339355469,0
0.7087434768676758,0.3331535339355469,0
0.7112606048583984,0.3271917343139648,0
0.7208227157592774,0.3271917343139648,0
0.7193470001220703,0.3345050811767578,0
0.7090908050537109,0.3265754699707031,0
0.7197143554687500,0.3336095809936523,0
0.7094163894653320,0.3354944229125976,0
0.7129646301269531,0.3367183685302734,0
0.7190975189208985,0.3367183685302734,0
0.7229238510131836,0.3273101806640625,0
0.7246450424194336,0.3273101806640625,0
0.7151865005493164,0.3341600418090820,0
0.7067064285278321,0.3341600418090820,0
0.7081621170043945,0.3252845764160156,0
0.7290733337402343,0.3252845764160156,0
0.7178123474121093,0.3310781478881836,0
0.7034534454345703,0.3310781478881836,0
0.7048135757446289,0.3280357360839843,0
0.7080648422241210,0.3280357360839843,0
0.7084842681884765,0.3131732940673828,0
0.7070611953735352,0.3131732940673828,0
0.6951627731323242,0.3159708023071289,0
0.6847841262817382,0.3159708023071289,0
0.6849809646606445,0.3051967620849609,0
0.7058423995971680,0.3051967620849609,0
0.6954082489013672,0.3121885299682617,0
0.6824260711669922,0.3121885299682617,0
0.6856029510498046,0.3125776290893554,0
0.6917106628417968,0.3125776290893554,0
0.6953458786010742,0.3031551361083984,0
0.6974916458129883,0.3031551361083984,0
0.6884954452514648,0.3112947463989258,0
0.6809045791625976,0.3112947463989258,0
0.6832872390747070,0.3045049667358398,0
0.7062921524047852,0.3045049667358398,0
0.6973812103271484,0.3142827987670898,0
0.6858209609985352,0.3142827987670898,0
0.6901256561279296,0.3166139602661133,0
0.6973491668701172,0.3166139602661133,0
0.7017539978027344,0.3087032318115234,0
0.7046178817749024,0.3087032318115234,0
0.6962448120117187,0.3180376052856445,0
0.6893119812011719,0.3180376052856445,0
0.6920219421386719,0.3121599197387695,0
0.7153907775878906,0.3121599197387695,0
0.7068117141723632,0.3222993850708007,0
0.6953207015991211,0.3222993850708007,0
0.6996620178222656,0.3246276855468750,0
0.7067602157592773,0.3246276855468750,0
0.7110591888427734,0.3165138244628906,0
0.7137313842773437,0.3165138244628906,0
0.7051305770874023,0.3255254745483399,0
0.6979408264160156,0.3255254745483399,0
0.7004396438598632,0.3192792892456054,0
0.7235223770141601,0.3192792892456054,0
0.7145490646362305,0.3288745880126953,0
0.7027347564697265,0.3288745880126953,0
0.7066583633422852,0.3305391311645507,0
0.7133331298828125,0.3305391311645507,0
0.7172092437744141,0.3216087341308594,0
0.7194019317626953,0.3216087341308594,0
0.7102375030517578,0.3297786712646484,0
0.7025785446166992,0.3297786712646484,0
0.7046184539794922,0.3227405548095703,0
0.7271821975708007,0.3227405548095703,0
0.7178506851196289,0.3315359115600586,0
0.7055631637573242,0.3315359115600586,0
0.7091485977172851,0.3325338363647461,0
0.7155281066894531,0.3325338363647461,0
0.7189796447753906,0.3230283737182617,0
0.7209629058837891,0.3230283737182617,0
0.7116748809814453,0.3308824539184570,0
0.7037967681884766,0.3308824539184570,0
0.7056678771972656,0.3233419418334961,0
0.7280239105224610,0.3233419418334961,0
0.7184326171875000,0.3319850921630859,0
0.7060432434082031,0.3319850921630859,0
0.7094924926757812,0.3326419830322265,0
0.7156208038330077,0.3326419830322265,0
0.7190671920776367,0.3229516983032226,0
0.7210212707519531,0.3229516983032226,0
0.7115524291992187,0.3306604385375976,0
0.7035593032836914,0.3306604385375976,0
0.7055517196655273,0.3232280731201172,0
0.7280656814575195,0.3232280731201172,0
0.7185195922851563,0.3319101333618164,0
0.7061244964599609,0.3319101333618164,0
0.7097700119018554,0.3328891754150390,0
0.7160882949829102,0.3328891754150390,0
0.7197452545166015,0.3234260559082031,0
0.7218681335449219,0.3234260559082031,0
0.7126710891723632,0.3315753936767578,0
0.7048089981079101,0.3315753936767578,0
0.7068998336791992,0.3243009567260742,0
0.7296569824218749,0.3243009567260742,0
0.7201480865478516,0.3332799911499023,0
0.7191341400146484,0.3319564819335937,0
0.7236705780029297,0.3323604583740234,0
0.7216753005981446,0.3196706771850586,0
0.7145753860473633,0.3236085891723633,0
0.7095033645629882,0.3338636398315429,0
0.7089277267456054,0.3258865356445312,0
0.7221061706542968,0.3208974838256836,0
0.7135734558105469,0.3439041137695312,0
0.7199003219604492,0.3358995437622070,0
0.7257802963256835,0.3264221191406250,0
0.7134384155273438,0.3279710769653320,0
0.7215551376342774,0.3353691101074219,0
0.7107851028442382,0.3450536727905273,0
0.7240882873535156,0.3223628997802734,0
0.7368656158447265,0.3299079895019531,0
0.7154033660888671,0.3373117446899414,0
0.7253580093383789,0.3275556564331055,0
0.7149845123291015,0.3258647918701172,0
0.7094347000122070,0.3355545043945312,0
0.7332252502441406,0.3270606994628906,0
0.7218372344970703,0.3322214126586914,0
0.7195907592773437,0.3255489349365234,0
0.7198694229125976,0.3177806854248047,0
0.7019737243652343,0.3271219253540039,0
0.7014129638671874,0.3156457901000976,0
0.7034351348876953,0.3180467605590820,0
0.6899688720703124,0.3080080032348633,0
0.6999000549316406,0.3003707885742187,0
0.6888805389404297,0.3070592880249023,0
0.6888805389404297,0.3139194488525390,0
0.6976438522338867,0.3034801483154297,0
0.6869316101074219,0.3248216629028320,0
0.6949876785278321,0.2985002517700195,0
0.6845512390136719,0.3042966842651367,0
0.6957086563110352,0.3106561660766601,0
0.6969291687011718,0.3073408126831055,0
0.6893926620483398,0.3154729843139648,0
0.7003767013549804,0.3009332656860351,0
0.6941207885742188,0.3055801391601562,0
0.6863153457641601,0.3156423568725586,0
0.6893325805664062,0.3087902069091797,0
0.7036697387695312,0.3042154312133789,0
0.6912712097167969,0.3186635971069336,0
0.7083698272705078,0.3092021942138672,0
0.6935834884643555,0.3186681747436523,0
0.6967912673950195,0.3136247634887695,0
0.7065713882446288,0.3224075317382812,0
0.6960668563842773,0.3224075317382812,0
0.7105957031250000,0.3214107513427734,0
0.7105957031250000,0.3248662948608398,0
0.7024538040161132,0.3264827728271484,0
0.7152791976928711,0.3152698516845703,0
0.7031976699829101,0.3392629623413086,0
0.7133274078369141,0.3191957473754883,0
0.7011583328247070,0.3268735885620117,0
0.7005489349365234,0.3184679031372070,0
0.7134916305541992,0.3275373458862305,0
0.7121406555175781,0.3275373458862305,0
0.7158370971679687,0.3162065505981445,0
0.7158370971679687,0.3255935668945312,0
0.7025344848632812,0.3189210891723633,0
0.7099451065063477,0.3119178771972656,0
0.6991636276245117,0.3255998611450195,0
0.7014209747314453,0.3225763320922851,0
0.7107559204101562,0.3251432418823242,0
0.7007102966308594,0.3247404098510742,0
0.7119483947753906,0.3129901885986328,0
0.6980100631713867,0.3138708114624023,0
0.6980100631713867,0.3148235321044922,0
0.7045297622680664,0.3209123611450195,0
0.6927864074707031,0.3302129745483398,0
0.7046218872070312,0.3200260162353515,0
0.6914606094360352,0.3200260162353515,0
0.7004184722900391,0.3201381683349609,0
0.7065713882446288,0.3176153182983398,0
0.6932739257812500,0.3112243652343750,0
0.6961549758911133,0.3075582504272461,0
0.6906744003295898,0.3180387496948242,0
0.7017047882080077,0.3158163070678711,0
0.7029476165771484,0.3047040939331054,0
0.6941396713256835,0.3271791458129883,0
0.7000001907348633,0.3194955825805664,0
0.7064769744873046,0.3091203689575195,0
0.6933689117431641,0.3111791610717773,0
0.7013711929321289,0.3183397293090820,0
0.6900123596191406,0.3288734436035156,0
0.7036005020141601,0.3046079635620117,0
0.6907836914062500,0.3191013336181641,0
0.7005002975463867,0.3203435897827148,0
0.7073890686035156,0.3082288742065429,0
0.6944543838500976,0.3123069763183594,0
0.6979047775268554,0.3123069763183594,0
0.6919103622436523,0.3199779510498047,0
0.6919103622436523,0.3119092941284179,0
0.7063699722290039,0.3217334747314453,0
0.7054704666137696,0.3213781356811523,0
0.7109916687011718,0.3113142013549804,0
0.7088853836059570,0.3211595535278320,0
0.7012836456298828,0.3151634216308594,0
0.7012836456298828,0.3221214294433594,0
0.6935811996459961,0.3127676010131836,0
0.7055849075317383,0.3182493209838867,0
0.7015102386474609,0.3166099548339844,0
0.7145908355712890,0.3102476119995117,0
0.6825754165649414,0.3114704132080078,0
0.6961750030517578,0.3007564544677734,0
0.6841810226440429,0.3068836212158203,0
0.6876039505004883,0.2916543960571289,0
0.6862197875976562,0.3020971298217773,0
0.6756603240966796,0.3017515182495117,0
0.6989404678344726,0.2962354660034179,0
0.6750188827514648,0.3040060043334961,0
0.6843669891357421,0.2917739868164063,0
0.6726819992065429,0.3150352478027343,0
0.6808101654052734,0.3006551742553711,0
0.6808101654052734,0.3011947631835937,0
0.6723403930664062,0.2984659194946289,0
0.6828214645385742,0.3017269134521484,0
0.6732181549072266,0.3029565811157227,0
0.6866895675659179,0.3029565811157227,0
0.6727878570556640,0.3156148910522461,0
0.6829519271850586,0.3013669967651367,0
0.6817611694335938,0.3019752502441406,0
0.6830228805541992,0.2996520996093750,0
0.6844722747802734,0.2877490997314453,0
0.6753765106201172,0.3048379898071289,0
0.6890224456787110,0.3048379898071289,0
0.6898904800415039,0.2940702438354492,0
0.6790695190429688,0.3036666870117187,0
0.6845214843749999,0.2893781661987305,0
0.6856389999389648,0.3019672393798828,0
0.6871278762817382,0.3019672393798828,0
0.6772762298583984,0.3158145904541015,0
0.6834611892700195,0.3070924758911133,0
0.6911298751831054,0.2956615447998047,0
0.6766359329223632,0.2983520507812500,0
0.6864240646362304,0.3070238113403320,0
0.6744878768920898,0.3070238113403320,0
0.6895133972167968,0.3046720504760742,0
0.6895133972167968,0.3082563400268555,0
0.6798013687133789,0.3093618392944336,0
0.6929906845092774,0.2966691970825195,0
0.6783439636230468,0.2993694305419922,0
0.6881298065185547,0.2993694305419922,0
0.6749633789062500,0.3066942214965820,0
0.6740501403808593,0.2972991943359375,0
0.6873332977294921,0.3061563491821289,0
0.6858615875244141,0.3044706344604492,0
0.6896043777465820,0.3066513061523438,0
0.6888290405273437,0.2947637557983399,0
0.6749794006347656,0.2963727951049804,0
0.6826629638671875,0.3036231994628906,0
0.6838079452514648,0.3033628463745117,0
0.6843612670898437,0.2927753448486328,0
0.6866935729980469,0.2946773529052734,0
0.6760259628295898,0.2909248352050781,0
0.6672534942626953,0.3024169921875000,0
0.6690450668334961,0.3129272460937500,0
0.6690450668334961,0.2932651519775391,0
0.6830852508544921,0.2991703033447266,0
0.6823127746582031,0.2959299087524414,0
0.6739025115966797,0.2959299087524414,0
0.6871381759643554,0.3019334793090820,0
0.6711244583129883,0.3019334793090820,0
0.6733978271484374,0.2950979232788086,0
0.6834657669067382,0.2950979232788086,0
0.6822149276733398,0.3034172058105469,0
0.6706970214843749,0.3034172058105469,0
0.6833507537841796,0.3001619338989258,0
0.6743030548095703,0.3001619338989258,0
0.6839120864868163,0.2971172332763672,0
0.6997192382812499,0.2971172332763672,0
0.6891117095947266,0.3035007476806640,0
0.6729921340942383,0.3035007476806640,0
0.6753015518188477,0.2965993881225586,0
0.6854158401489258,0.2965993881225586,0
0.6843738555908203,0.3053781509399414,0
0.6728462219238281,0.3053781509399414,0
0.6856824874877929,0.3020153045654297,0
0.6766450881958007,0.3020153045654297,0
0.6864606857299804,0.2991147994995117,0
0.7026294708251953,0.2991147994995117,0
0.6917684555053710,0.3057929992675781,0
0.6755630493164062,0.3057929992675781,0
0.6777957916259766,0.2986862182617188,0
0.6878414154052734,0.2986862182617188,0
0.6865345001220703,0.3069963455200195,0
0.6742881774902344,0.3069963455200195,0
0.6863874435424805,0.3019449234008789,0
0.6759269714355468,0.3019449234008789,0
0.6841403961181640,0.2964414596557617,0
0.6986137390136719,0.2964414596557617,0
0.6859210968017578,0.3004348754882812,0
0.6679756164550781,0.3004348754882812,0
0.6687967300415039,0.2905609130859375,0
0.6774524688720703,0.2905609130859375,0
0.6750835418701172,0.2972145080566406,0
0.6620338439941406,0.2972145080566406,0
0.6738458633422851,0.2915691375732422,0
0.6635433197021484,0.2915691375732422,0
0.6723369598388672,0.2868942260742187,0
0.6875438690185547,0.2868942260742187,0
0.6754938125610351,0.2923564910888672,0
0.6585496902465821,0.2923564910888672,0
0.6602571487426757,0.2839078903198242,0
0.6699171066284180,0.2839078903198242,0
0.6683378219604492,0.2921150207519531,0
0.6559467315673828,0.2921150207519531,0
0.6687595367431640,0.2874956130981445,0
0.6593902587890624,0.2874956130981445,0
0.6690736770629883,0.2843547821044922,0
0.6851137161254882,0.2843547821044922,0
0.6735569000244140,0.2909317016601562,0
0.6572874069213867,0.2909317016601562,0
0.6594560623168945,0.2833173751831055,0
0.6629739761352539,0.2833173751831055,0
0.6684413909912109,0.2922214508056640,0
0.6563867568969727,0.2922214508056640,0
0.6694290161132812,0.2881238937377930,0
0.6605215072631836,0.2881238937377930,0
0.6703994750976562,0.2854751586914062,0
0.6864114761352539,0.2854751586914062,0
0.6753107070922851,0.2924451828002930,0
0.6594211578369140,0.2924451828002930,0
0.6617591857910156,0.2851667404174805,0
0.6719867706298828,0.2851667404174805,0
0.6710197448730468,0.2944181442260742,0
0.6590074539184571,0.2944181442260742,0
0.6722316741943359,0.2903755187988281,0
0.6635524749755859,0.2903755187988281,0
0.6735671997070313,0.2881404876708984,0
0.6651031494140625,0.2881404876708984,0
0.6788509368896484,0.2953731536865234,0
0.6631971359252929,0.2953731536865234,0
0.6656661987304687,0.2884208679199219,0
0.6760002136230469,0.2884208679199219,0
0.6750263214111328,0.2978118896484375,0
0.6631107330322266,0.2978118896484375,0
0.6763298034667968,0.2938013076782227,0
0.6678091049194336,0.2938013076782227,0
0.6776899337768555,0.2917476654052734,0
0.6936481475830077,0.2917476654052734,0
0.6826623916625977,0.2981163024902344,0
0.6666435241699219,0.2981163024902344,0
0.6690032958984374,0.2914878845214844,0
0.6814704895019531,0.2914878845214844,0
0.6779228210449219,0.2999902725219726,0
0.6654590606689453,0.2999902725219726,0
0.6782958984374999,0.2952203750610352,0
0.6693529129028321,0.2952203750610352,0
0.6790718078613281,0.2924079895019531,0
0.6943399429321289,0.2924079895019531,0
0.6831087112426758,0.2986845016479492,0
0.6671470642089844,0.2986845016479492,0
0.6690393447875976,0.2908733367919922,0
0.6786123275756836,0.2908733367919922,0
0.6771675109863281,0.2994318008422852,0
0.6646654129028320,0.2994318008422852,0
0.6773099899291992,0.2942230224609375,0
0.6684940338134765,0.2942230224609375,0
0.6780612945556640,0.2916538238525391,0
0.6931789398193359,0.2916538238525391,0
0.6819047927856445,0.2977975845336914,0
0.6663311004638671,0.2977975845336914,0
0.6682617187500000,0.2901706695556641,0
0.6778696060180663,0.2901706695556641,0
0.6764968872070313,0.2989345550537109,0
0.6640726089477539,0.2989345550537109,0
0.6769901275634765,0.2937480926513672,0
0.6684242248535156,0.2937480926513672,0
0.6779731750488281,0.2915473937988281,0
0.6929374694824219,0.2915473937988281,0
0.6819551467895507,0.2978101730346679,0
0.6667539596557617,0.2978101730346679,0
0.6687349319458008,0.2904493331909180,0
0.6782392501831055,0.2904493331909180,0
0.6769563674926757,0.2992177963256836,0
0.6646751403808594,0.2992177963256836,0
0.6774375915527343,0.2941308975219726,0
0.6783714294433594,0.2941308975219726,0
0.6786249160766601,0.2921539306640625,0
0.6932086944580078,0.2921539306640625,0
0.6826532363891601,0.2984710693359375,0
0.6812982559204102,0.2984710693359375,0
0.6698598861694336,0.2913854598999023,0
