REDsignal,IRsignal,synced
0.4642793655395507,0.2287536621093750,0
0.4749217987060547,0.2093713760375976,0
0.4749217987060547,0.2138111114501953,0
0.4569620132446289,0.2472095489501953,0
0.4631452560424805,0.2255887985229492,0
0.4486965179443359,0.2255887985229492,0
0.4504188537597656,0.2119239807128906,0
0.4863447189331054,0.2119239807128906,0
0.4721694946289062,0.2245719909667969,0
0.4530189514160156,0.2245719909667969,0
0.4568338394165039,0.2285591125488281,0
0.4631406784057617,0.2285591125488281,0
0.4693714141845703,0.2103727340698242,0
0.4729631423950195,0.2103727340698242,0
0.4556819915771484,0.2185626983642578,0
0.4386812210083008,0.2185626983642578,0
0.4381135940551757,0.2011516571044922,0
0.4717844009399414,0.2011516571044922,0
0.4557987213134765,0.2109884262084961,0
0.4353303909301758,0.2109884262084961,0
0.4384540557861328,0.2137601852416992,0
0.4444982528686524,0.2137601852416992,0
0.4512416839599609,0.1963914871215820,0
0.4559589385986328,0.1963914871215820,0
0.4397907257080078,0.2066837310791016,0
0.4246376037597656,0.2066837310791016,0
0.4259273529052734,0.1923357009887695,0
0.4614406585693359,0.1923357009887695,0
0.4472637176513672,0.2050523757934570,0
0.4287157058715820,0.2050523757934570,0
0.4334043502807617,0.2102628707885742,0
0.4410770416259766,0.2102628707885742,0
0.4337242126464844,0.1949140548706055,0
0.4337242126464844,0.2282083511352539,0
0.4337242126464844,0.2071168899536133,0
0.4454526901245117,0.2071168899536133,0
0.4277538299560547,0.1940196990966797,0
0.4639360427856445,0.1940196990966797,0
0.4502746582031250,0.2077257156372070,0
0.4321878433227539,0.2077257156372070,0
0.4373451232910156,0.2135690689086914,0
0.4455121994018554,0.2135690689086914,0
0.4537885665893555,0.1987667083740234,0
0.4600267410278320,0.1987667083740234,0
0.4449995040893555,0.2111257553100586,0
0.4309844970703125,0.2111257553100586,0
0.4331560134887695,0.1983495712280273,0
0.4694389343261718,0.1983495712280273,0
0.4559011459350586,0.2120201110839844,0
0.4378892898559570,0.2120201110839844,0
0.4427467346191406,0.2178056716918945,0
0.4613794326782226,0.2178056716918945,0
0.4589000701904297,0.2023967742919922,0
0.4436840057373047,0.2023967742919922,0
0.4498163223266601,0.2148679733276367,0
0.4356342315673828,0.2148679733276367,0
0.4375974655151367,0.2019372940063477,0
0.4738494873046875,0.2019372940063477,0
0.4602012634277344,0.2155626296997070,0
0.4421642303466797,0.2155626296997070,0
0.4471069335937500,0.2213338851928711,0
0.4550897598266601,0.2213338851928711,0
0.4632316589355469,0.2061103820800781,0
0.4693548202514648,0.2061103820800781,0
0.4539716720581055,0.2182245254516602,0
0.4396001815795899,0.2182245254516602,0
0.4413351058959961,0.2049282073974609,0
0.4773639678955078,0.2049282073974609,0
0.4633535385131836,0.2179264068603516,0
0.4446882247924804,0.2179264068603516,0
0.4492458343505859,0.2228548049926758,0
0.4568138122558594,0.2228548049926758,0
0.4644676208496094,0.2066030502319336,0
0.4701427459716797,0.2066030502319336,0
0.4542491912841797,0.2182485580444336,0
0.4394554138183593,0.2182485580444336,0
0.4409402847290039,0.2042364120483398,0
0.4769182205200195,0.2042364120483398,0
0.4624591827392578,0.2169347763061523,0
0.4434614181518555,0.2169347763061523,0
0.4479343414306641,0.2216794967651367,0
0.4553621292114258,0.2216794967651367,0
0.4631086349487304,0.2050769805908203,0
0.4688678741455078,0.2050769805908203,0
0.4527952194213867,0.2171373367309570,0
0.4381095886230469,0.2171373367309570,0
0.4397575378417969,0.2033054351806640,0
0.4762945175170898,0.2033054351806640,0
0.4619390487670898,0.2166257858276367,0
0.4431604385375976,0.2166257858276367,0
0.4479280471801758,0.2218477249145508,0
0.4557695388793945,0.2218477249145508,0
0.4638135910034180,0.2052434921264648,0
0.4698898315429687,0.2052434921264648,0
0.4540603637695312,0.2181982040405273,0
0.4396236419677734,0.2181982040405273,0
0.4415205001831055,0.2049997329711914,0
0.4784236907958984,0.2049997329711914,0
0.4643823623657226,0.2187440872192383,0
0.4458806991577148,0.2187440872192383,0
0.4508056640625000,0.2242412567138672,0
0.4587341308593750,0.2242412567138672,0
0.4670150756835937,0.2079774856567383,0
0.4732269287109375,0.2079774856567383,0
0.4574661254882812,0.2207931518554687,0
0.4431306838989258,0.2207931518554687,0
0.4449148178100586,0.2078458786010742,0
0.4816864013671875,0.2078458786010742,0
0.4676902770996094,0.2214666366577148,0
0.4492807388305664,0.2214666366577148,0
0.4542222976684570,0.2268344879150390,0
0.4620460510253906,0.2268344879150390,0
0.4700700759887695,0.2105089187622070,0
0.4762578964233398,0.2105089187622070,0
0.4604118347167969,0.2231946945190430,0
0.4460958480834961,0.2231946945190430,0
0.4478067398071289,0.2102434158325195,0
0.4842933654785156,0.2102434158325195,0
0.4703624725341797,0.2237302780151367,0
0.4519712448120117,0.2237302780151367,0
0.4569854736328125,0.2289505004882812,0
0.4647909164428711,0.2289505004882812,0
0.4727125167846680,0.2129665374755859,0
0.4789123535156250,0.2129665374755859,0
0.4632173538208008,0.2255853652954102,0
0.4490575790405273,0.2255853652954102,0
0.4507518768310547,0.2125883102416992,0
0.4868534088134766,0.2125883102416992,0
0.4727342605590820,0.2255373001098633,0
0.4538108825683593,0.2255373001098633,0
0.4577676773071289,0.2290420532226562,0
0.4640550613403320,0.2290420532226562,0
0.4700265884399414,0.2098188400268555,0
0.4737773895263672,0.2098188400268555,0
0.4554130554199218,0.2184247970581055,0
0.4385730743408203,0.2184247970581055,0
0.4377056121826172,0.2013221740722656,0
0.4715669631958008,0.2013221740722656,0
0.4553855895996093,0.2112018585205078,0
0.4348325729370117,0.2112018585205078,0
0.4378961563110351,0.2132549285888672,0
0.4439363479614258,0.2132549285888672,0
0.4503147125244140,0.1947441101074219,0
0.4552202224731445,0.1947441101074219,0
0.4383596420288086,0.2058311462402344,0
0.4233827590942383,0.2058311462402344,0
0.4245283126831055,0.1919975280761719,0
0.4605617523193359,0.1919975280761719,0
0.4463241577148437,0.2050043106079102,0
0.4277114868164062,0.2050043106079102,0
0.4324516296386718,0.2096540451049805,0
0.4401334762573242,0.2096540451049805,0
0.4479927062988281,0.1931407928466797,0
0.4543167114257812,0.1931407928466797,0
0.4446538925170898,0.1856420516967773,0
0.4300346374511719,0.2050123214721680,0
0.4493230819702148,0.2001308441162109,0
0.4493230819702148,0.1977258682250977,0
0.4718702316284180,0.1977258682250977,0
0.4558130264282226,0.2084283828735352,0
0.4328842163085938,0.2084283828735352,0
0.4373754501342773,0.1988817214965820,0
0.4507524490356445,0.1988817214965820,0
0.4502889633178710,0.2093873977661133,0
0.4358699798583984,0.2093873977661133,0
0.4512010574340820,0.2047027587890625,0
0.4373010635375976,0.2047027587890625,0
0.4534412384033203,0.2022708892822266,0
0.4775596618652344,0.2022708892822266,0
0.4615242004394531,0.2127679824829102,0
0.4383487701416016,0.2127679824829102,0
0.4428153991699219,0.2031646728515625,0
0.4562479019165039,0.2031646728515625,0
0.4559360504150390,0.2138820648193359,0
0.4415033340454101,0.2138820648193359,0
0.4571313858032227,0.2094926834106445,0
0.4431661605834961,0.2094926834106445,0
0.4594671249389648,0.2070562362670898,0
0.4837022781372070,0.2330875396728516,0
0.4677223205566406,0.2175642013549805,0
0.4445108413696289,0.2175642013549805,0
0.4487972259521484,0.2078178405761719,0
0.4619791030883789,0.2078178405761719,0
0.4614549636840820,0.2182073593139648,0
0.4465827941894531,0.2182073593139648,0
0.4618343353271484,0.2131027221679687,0
0.4473152160644531,0.2131027221679687,0
0.4630468368530273,0.2097318649291992,0
0.4866319656372070,0.2097318649291992,0
0.4699831008911133,0.2190971374511719,0
0.4460821151733398,0.2190971374511719,0
0.4497596740722656,0.2084123611450195,0
0.4623252868652343,0.2084123611450195,0
0.4612323760986328,0.2178245544433594,0
0.4459138870239258,0.2178245544433594,0
0.4607563018798828,0.2120859146118164,0
0.4460117340087891,0.2120859146118164,0
0.4613708496093750,0.2082447052001953,0
0.4849456787109375,0.2082447052001953,0
0.4681995391845703,0.2175745010375977,0
0.4443059921264648,0.2175745010375977,0
0.4481094360351562,0.2070705413818359,0
0.4608049392700195,0.2070705413818359,0
0.4599924087524414,0.2168529510498047,0
0.4449932098388672,0.2168529510498047,0
0.4601612091064453,0.2117643356323242,0
0.4457170486450195,0.2117643356323242,0
0.4612112045288086,0.2083648681640625,0
0.4851282119750976,0.2083648681640625,0
0.4687339782714843,0.2179201126098633,0
0.4450727462768554,0.2179201126098633,0
0.4491519927978516,0.2079471588134766,0
0.4620964050292968,0.2079471588134766,0
0.4615648269653320,0.2180728912353516,0
0.4467510223388672,0.2180728912353516,0
0.4622045516967773,0.2135152816772461,0
0.4478473663330078,0.2135152816772461,0
0.4634365081787109,0.2102382659912109,0
0.4875251770019531,0.2102382659912109,0
0.4715000152587890,0.2200475692749023,0
0.4477741241455078,0.2200475692749023,0
0.4518487930297851,0.2103069305419922,0
0.4647611618041992,0.2103069305419922,0
0.4644842147827148,0.2204063415527344,0
0.4498065948486328,0.2204063415527344,0
0.4653390884399414,0.2160301208496094,0
0.4508359909057617,0.2160301208496094,0
0.4663249969482421,0.2127897262573242,0
0.4905624389648438,0.2127897262573242,0
0.4746591567993164,0.2224559783935547,0
0.4509899139404296,0.2224559783935547,0
0.4550720214843750,0.2129579544067383,0
0.4680599212646484,0.2129579544067383,0
0.4677846908569336,0.2231100082397461,0
0.4533016204833984,0.2231100082397461,0
0.4690309524536133,0.2189632415771484,0
0.4546371459960937,0.2189632415771484,0
0.4700042724609375,0.2156965255737305,0
0.4943630218505859,0.2156965255737305,0
0.4782331466674805,0.2253044128417969,0
0.4545404434204101,0.2253044128417969,0
0.4587118148803710,0.2159992218017578,0
0.4716247558593750,0.2159992218017578,0
0.4714874267578125,0.2261512756347656,0
0.4568893432617187,0.2261512756347656,0
0.4726203918457031,0.2218414306640625,0
0.4581430435180664,0.2218414306640625,0
0.4734655380249023,0.2184551239013672,0
0.4974271774291992,0.2184551239013672,0
0.4811170578002930,0.2272848129272461,0
0.4566862106323242,0.2272848129272461,0
0.4596559524536132,0.2159860610961914,0
0.4708208084106445,0.2159860610961914,0
0.4684318542480468,0.2225612640380859,0
0.4510448455810547,0.2225612640380859,0
0.4641981124877930,0.2136617660522461,0
0.4468917846679688,0.2136617660522461,0
0.4594791412353516,0.2058998107910156,0
0.4811960220336914,0.2058998107910156,0
0.4629976272583007,0.2118879318237305,0
0.4370063781738281,0.2118879318237305,0
0.4393455505371094,0.1995838165283203,0
0.4505235671997070,0.1995838165283203,0
0.4490026473999023,0.2075019836425781,0
0.4332401275634766,0.2075019836425781,0
0.4483240127563476,0.2018365859985352,0
0.4329156875610352,0.2018365859985352,0
0.4475875854492187,0.1974157333374023,0
0.4716281890869141,0.1974157333374023,0
0.4554033279418945,0.2064336776733398,0
0.4314920425415039,0.2064336776733398,0
0.4355443954467773,0.1970586776733398,0
0.4484178543090820,0.1970586776733398,0
0.4485637664794922,0.2073331832885742,0
0.4343009948730469,0.2073331832885742,0
0.4507055282592773,0.2039623260498047,0
0.4363420486450195,0.2039623260498047,0
0.4517721176147461,0.2010177612304687,0
0.4767007827758789,0.2010177612304687,0
0.4612386703491211,0.2111011505126953,0
0.4378458023071289,0.2111011505126953,0
0.4422569274902344,0.2026153564453125,0
0.4555257797241211,0.2026153564453125,0
0.4558902740478515,0.2133281707763672,0
0.4418809890747070,0.2133281707763672,0
0.4582014083862305,0.2100568771362305,0
0.4437732696533203,0.2100568771362305,0
0.4591815948486328,0.2069320678710938,0
0.4839197158813476,0.2069320678710938,0
0.4682773590087890,0.2166452407836914,0
0.4445440292358399,0.2166452407836914,0
0.4488378524780273,0.2078413009643555,0
0.4618406295776367,0.2078413009643555,0
0.4620031356811523,0.2183023452758789,0
0.4478273391723633,0.2183023452758789,0
0.4640933990478515,0.2150281906127930,0
0.4496961593627929,0.2150281906127930,0
0.4649442672729492,0.2117019653320313,0
0.4896308898925781,0.2117019653320313,0
0.4740520477294922,0.2214551925659180,0
0.4503393173217773,0.2214551925659180,0
0.4547338485717773,0.2125528335571289,0
0.4675346374511719,0.2125528335571289,0
0.4675174713134765,0.2227529525756836,0
0.4530664443969726,0.2227529525756836,0
0.4690784454345703,0.2188528060913086,0
0.4541725158691406,0.2188528060913086,0
0.4687511444091796,0.2146345138549805,0
0.4928924560546875,0.2146345138549805,0
0.4767477035522460,0.2232765197753906,0
0.4523283004760742,0.2232765197753906,0
0.4560619354248047,0.2134809494018555,0
0.4681394577026367,0.2134809494018555,0
0.4675666809082031,0.2224159240722656,0
0.4525434494018554,0.2224159240722656,0
0.4681531906127929,0.2176523208618164,0
0.4526458740234375,0.2176523208618164,0
0.4666666030883789,0.2126506805419922,0
0.4903896331787109,0.2126506805419922,0
0.4740022659301757,0.2208641052246094,0
0.4494695663452148,0.2208641052246094,0
0.4529222488403320,0.2108716964721680,0
0.4650426864624023,0.2108716964721680,0
0.4645877838134765,0.2199440002441406,0
0.4498277664184570,0.2199440002441406,0
0.4656818389892578,0.2158218383789063,0
0.4505315780639648,0.2158218383789063,0
0.4648653030395508,0.2114753723144531,0
0.4890369415283203,0.2114753723144531,0
0.4729866027832031,0.2201219558715820,0
0.4487400054931641,0.2201219558715820,0
0.4526727676391601,0.2109008789062500,0
0.4650918960571289,0.2109008789062500,0
0.4648990631103516,0.2204715728759765,0
0.4504875183105468,0.2204715728759765,0
0.4664634704589843,0.2167848587036133,0
0.4514785766601562,0.2167848587036133,0
0.4660858154296875,0.2127296447753906,0
0.4904342651367187,0.2127296447753906,0
0.4743061065673828,0.2216045379638672,0
0.4502935409545898,0.2216045379638672,0
0.4543905258178711,0.2125293731689453,0
0.4668823242187500,0.2125293731689453,0
0.4667467117309570,0.2223369598388672,0
0.4525588989257812,0.2223369598388672,0
0.4685771942138672,0.2188024520874023,0
0.4537382125854492,0.2188024520874023,0
0.4682670593261719,0.2147043228149414,0
0.4926538467407227,0.2147043228149414,0
0.4766887664794922,0.2236238479614258,0
0.4526876449584961,0.2236238479614258,0
0.4567113876342773,0.2146070480346680,0
0.4692352294921875,0.2146070480346680,0
0.4691843032836914,0.2244266510009766,0
0.4547859191894531,0.2244266510009766,0
0.4710657119750976,0.2209819793701172,0
0.4561094284057617,0.2209819793701172,0
0.4704900741577148,0.2165737152099609,0
0.4947469711303711,0.2165737152099609,0
0.4788356781005859,0.2254211425781250,0
0.4546857833862304,0.2254211425781250,0
0.4586271286010742,0.2163877487182617,0
0.4711114883422851,0.2163877487182617,0
0.4710622787475586,0.2259904861450195,0
0.4568647384643554,0.2259904861450195,0
0.4729682922363281,0.2228593826293945,0
0.4582025527954101,0.2228593826293945,0
0.4726243972778320,0.2183910369873047,0
0.4970014572143555,0.2183910369873047,0
0.4809310913085937,0.2271389007568359,0
0.4567359924316406,0.2271389007568359,0
0.4605806350708008,0.2176322937011719,0
0.4723611831665039,0.2176322937011719,0
0.4714273452758789,0.2256151199340820,0
0.4558370590209961,0.2256151199340820,0
0.4701822280883789,0.2195022583007812,0
0.4526664733886718,0.2195022583007812,0
0.4641729354858398,0.2107332229614258,0
0.4859601974487304,0.2107332229614258,0
0.4675237655639648,0.2152502059936523,0
0.4408086776733398,0.2152502059936523,0
0.4427759170532227,0.2027893066406250,0
0.4529874801635742,0.2027893066406250,0
0.4511615753173828,0.2093645095825195,0
0.4355352401733398,0.2093645095825195,0
0.4504045486450195,0.2041013717651367,0
0.4342065811157226,0.2041013717651367,0
0.4475189208984375,0.1982299804687500,0
0.4711709976196289,0.1982299804687500,0
0.4547847747802734,0.2060422897338867,0
0.4304117202758789,0.2060422897338867,0
0.4342838287353515,0.1968458175659180,0
0.4465284347534180,0.1968458175659180,0
0.4464712142944336,0.2063501358032226,0
0.4324985504150390,0.2063501358032226,0
0.4342552185058594,0.2036361694335938,0
0.4509801864624023,0.2096179962158203,0
0.4381570816040039,0.2233486175537109,0
0.4540809631347656,0.1904148101806641,0
0.4617731094360351,0.1958038330078125,0
0.4523700714111328,0.2110530853271484,0
0.4523700714111328,0.2112974166870117,0
0.4412160873413086,0.2089782714843750,0
0.4578363418579101,0.2152742385864258,0
0.4451728820800781,0.2184345245361328,0
0.4651983261108398,0.2145824432373047,0
0.4458646774291992,0.2370923995971680,0
0.4380071640014648,0.2163162231445312,0
0.4588954925537109,0.2163906097412109,0
0.4620002746582031,0.2135232925415039,0
0.4615619659423828,0.2100196838378906,0
0.4709255218505859,0.2192556381225586,0
0.4668771743774414,0.2060588836669922,0
0.4570466995239257,0.2034393310546875,0
0.4507244110107422,0.2207805633544922,0
0.4463699340820312,0.2095081329345703,0
0.4686962127685547,0.2238670349121094,0
0.4550411224365234,0.2365659713745117,0
0.4619121551513672,0.2259601593017578,0
0.4534990310668945,0.2431406021118164,0
0.4534990310668945,0.2125247955322266,0
0.4650775909423828,0.2210540771484375,0
0.4666580200195312,0.2173593521118164,0
0.4673206329345703,0.2173593521118164,0
0.4880435943603516,0.2118118286132812,0
0.4471572875976562,0.2195085525512695,0
0.4666952133178711,0.2053453445434570,0
0.4551097869873046,0.2016208648681641,0
0.4432720184326172,0.2185100555419922,0
0.4432720184326172,0.2067752838134766,0
0.4460374832153320,0.2206169128417969,0
0.4619441986083984,0.2101392745971680,0
0.4701364517211914,0.2182817459106445,0
0.4655353546142578,0.2045431137084961,0
0.4547149658203125,0.2012563705444336,0
0.4643726348876953,0.2160203933715820,0
0.4715480804443359,0.2196075439453125,0
0.4565528869628906,0.2110359191894531,0
0.4565528869628906,0.2205310821533203,0
0.4821390151977539,0.2089914321899414,0
0.4666334152221679,0.2179973602294922,0
0.4651205062866210,0.2131187438964844,0
0.4544466018676758,0.2359754562377930,0
0.4499153137207031,0.2215181350708008,0
0.4538211822509766,0.2130386352539062,0
0.4588434219360351,0.2225423812866211,0
0.4479841232299804,0.2109066009521484,0
0.4690652847290039,0.2109066009521484,0
0.4674802780151367,0.2266279220581054,0
0.4921308517456054,0.2149372100830078,0
0.4762687683105469,0.2235832214355469,0
0.4561843872070312,0.2150676727294922,0
0.4682024002075195,0.2150676727294922,0
0.4504245758056640,0.2243860244750976,0
0.4504245758056640,0.2129407882690430,0
0.4726060867309570,0.2273723602294922,0
0.4700334548950195,0.2289218902587891,0
0.4788671493530273,0.2256940841674805,0
0.4743370056152343,0.2070144653320312,0
0.4638244628906250,0.2090389251708984,0
0.4500406265258789,0.2266983032226562,0
0.4888841629028320,0.2147192001342773,0
0.4735576629638671,0.2233657836914062,0
0.4697422027587890,0.2162841796875000,0
0.4571531295776367,0.2374683380126953,0
0.4676353454589843,0.2212005615234375,0
0.4591564178466797,0.2087734222412109,0
0.4521749496459961,0.2162401199340820,0
0.4368101119995117,0.2312370300292969,0
0.4389495849609375,0.2088552474975586,0
0.4389158248901367,0.2229675292968750,0
0.4389158248901367,0.2126163482666016,0
0.4517555236816406,0.1930807113647461,0
0.4353841781616211,0.1980171203613281,0
0.4469175338745117,0.2066596984863281,0
0.4283517837524414,0.2252746582031250,0
0.4343101501464844,0.2042758941650391,0
0.4479892730712891,0.1991432189941406,0
0.4372718811035156,0.2221916198730469,0
0.4528907775878906,0.1943950653076172,0
0.4376495361328125,0.2306716918945312,0
0.4299001693725586,0.2101055145263672,0
0.4334169387817383,0.1993354797363281,0
0.4554136276245117,0.2077486038208008,0
0.4546714782714844,0.2047016143798828,0
0.4442213058471680,0.2278043746948242,0
0.4602996826171875,0.2139467239379883,0
0.4575399398803711,0.2062946319580078,0
0.4504961013793945,0.2159299850463867,0
0.4401369094848633,0.2048870086669922,0
0.4623023986816406,0.2131484985351562,0
0.4608524322509766,0.2216600418090820,0
0.4862005233764648,0.2096849441528320,0
0.4702623367309570,0.2186765670776367,0
0.4506425857543945,0.2108299255371094,0
0.4560104370117187,0.2027572631835937,0
0.4459110260009765,0.2388095855712891,0
0.4831575393676757,0.2094440460205078,0
0.4499691009521484,0.2241004943847656,0
0.4661733627319335,0.2138809204101562,0
0.4747587203979492,0.2220817565917969,0
0.4698629379272461,0.2030920028686523,0
0.4586986541748047,0.2045740127563477,0
0.4446052551269531,0.2224159240722656,0
0.4837806701660156,0.2103178024291992,0
0.4685760498046875,0.2195343017578125,0
0.4657258987426758,0.2131593704223633,0
0.4539854049682617,0.2353443145751953,0
0.4481311798095703,0.2206512451171875,0
0.4515867233276367,0.2111515045166016,0
0.4558759689331054,0.2021570205688477,0
0.4438442230224609,0.2076038360595703,0
0.4653059005737304,0.2076038360595703,0
0.4460884094238281,0.2213447570800781,0
0.4626239776611328,0.2107395172119141,0
0.4704391479492187,0.2186204910278320,0
0.4653842926025391,0.1992902755737305,0
0.4541193008422851,0.2097078323364258,0
0.4476339340209961,0.2173908233642578,0
0.4428714752197265,0.2071409225463867,0
0.4655725479125976,0.2217412948608398,0
0.4632865905761718,0.2236501693725586,0
0.4720836639404297,0.2041248321533203,0
0.4476533889770508,0.2200429916381836,0
0.4643051147460937,0.2119565963745117,0
0.4571657180786133,0.2216737747192383,0
0.4468717575073242,0.2106061935424805,0
0.4696083068847656,0.2190513610839844,0
0.4686344146728516,0.2279829025268555,0
0.4947858810424804,0.2157806396484375,0
0.4779458999633789,0.2248346328735351,0
0.4577791213989257,0.2167510986328125,0
0.4632762908935547,0.2167510986328125,0
0.4528953552246093,0.2452772140502930,0
0.4910287857055664,0.2153938293457031,0
0.4765079498291016,0.2306734085083008,0
0.4633134841918945,0.2331127166748047,0
0.4836204528808594,0.2331127166748047,0
0.4866216659545898,0.2151134490966797,0
0.4542108535766601,0.2307455062866211,0
0.4760250091552734,0.2292217254638672,0
0.4800704956054687,0.2288566589355469,0
0.4802982330322265,0.2102411270141601,0
0.4802982330322265,0.2231603622436523,0
0.4665212631225586,0.2458911895751953,0
0.4866147994995117,0.2317268371582031,0
0.4616540908813476,0.2317268371582031,0
0.4657487869262695,0.2231454849243164,0
0.4778881072998047,0.2231454849243164,0
0.4784048080444336,0.2310762405395508,0
0.4642026901245117,0.2310762405395508,0
0.4822500228881836,0.2304302215576172,0
0.4823776245117187,0.2304302215576172,0
0.4800327301025391,0.2244358062744141,0
0.5055753707885742,0.2244358062744141,0
0.4878976821899414,0.2322875976562500,0
0.4622657775878906,0.2322875976562500,0
0.4655668258666992,0.2223855972290039,0
0.4763814926147460,0.2223855972290039,0
0.4751375198364258,0.2273654937744141,0
0.4585046768188477,0.2273654937744141,0
0.4739187240600586,0.2225234985351562,0
0.4547000885009765,0.2225234985351562,0
0.4663003921508789,0.2122753143310547,0
0.4897642135620117,0.2122753143310547,0
0.4702337265014648,0.2171052932739258,0
0.4430316925048828,0.2171052932739258,0
0.4454092025756836,0.2056537628173828,0
0.4559686660766601,0.2056537628173828,0
0.4552385330200195,0.2114662170410156,0
0.4352102279663086,0.2114662170410156,0
0.4572538375854492,0.2094074249267578,0
0.4402725219726563,0.2094074249267578,0
0.4565517425537109,0.2027978897094727,0
0.4420927047729492,0.2027978897094727,0
0.4620437622070312,0.2110776901245117,0
0.4368965148925781,0.2110776901245117,0
0.4410484313964844,0.2028945922851562,0
0.4534721374511719,0.2028945922851562,0
0.4543722152709961,0.2112270355224609,0
0.4356754302978516,0.2112270355224609,0
0.4591804504394531,0.2113454818725586,0
0.4434928894042969,0.2113454818725586,0
0.4581796646118164,0.2065778732299805,0
0.4846206665039062,0.2065778732299805,0
0.4678613662719726,0.2159156799316406,0
0.4631916046142578,0.2159156799316406,0
0.4480550765991211,0.2085245132446289,0
0.4606830596923828,0.2085245132446289,0
0.4617147445678711,0.2171693801879883,0
0.4479909896850586,0.2171693801879883,0
0.4666368484497070,0.2171424865722656,0
0.4509263992309570,0.2171424865722656,0
0.4652486801147461,0.2120355606079102,0
0.4542469024658203,0.2120355606079102,0
0.4746288299560547,0.2212383270263672,0
0.4500251770019531,0.2212383270263672,0
0.4545175552368164,0.2136394500732422,0
0.4671072006225586,0.2136394500732422,0
0.4681285858154297,0.2223375320434570,0
0.4543613433837890,0.2223375320434570,0
0.4733058929443359,0.2224565505981445,0
0.4576246261596679,0.2224565505981445,0
0.4719017028808594,0.2176094055175781,0
0.4981573104858398,0.2176094055175781,0
0.4813304901123047,0.2267915725708008,0
0.4566158294677734,0.2267915725708008,0
0.4610269546508789,0.2188121795654297,0
0.4733900070190429,0.2188121795654297,0
0.4738351821899414,0.2269815444946289,0
0.4596319198608398,0.2269815444946289,0
0.4779619216918945,0.2261632919311523,0
0.4616003036499023,0.2261632919311523,0
0.4750963211059570,0.2199726104736328,0
0.5007156372070313,0.2199726104736328,0
0.4834253311157226,0.2281036376953125,0
0.4616312026977539,0.2191062927246094,0
0.4732543945312500,0.2191062927246094,0
0.4731370925903320,0.2261695861816406,0
0.4581922531127929,0.2261695861816406,0
0.4759895324707031,0.2242795944213867,0
0.4590414047241211,0.2242795944213867,0
0.4719045639038086,0.2174308776855469,0
0.4971765518188476,0.2174308776855469,0
0.4799634933471679,0.2251287460327148,0
0.4542091369628906,0.2251287460327148,0
0.4578752517700195,0.2161216735839844,0
0.4697336196899414,0.2161216735839844,0
0.4699504852294922,0.2236850738525391,0
0.4552328109741210,0.2236850738525391,0
0.4734226226806640,0.2223695755004883,0
0.4569831848144531,0.2223695755004883,0
0.4698011398315429,0.2160444259643555,0
0.4956029891967773,0.2160444259643555,0
0.4790828704833984,0.2244169235229492,0
0.4536420822143554,0.2244169235229492,0
0.4578105926513671,0.2159786224365234,0
0.4700059890747070,0.2159786224365234,0
0.4703773498535156,0.2243745803833008,0
0.4558656692504883,0.2243745803833008,0
0.4744268417358398,0.2230848312377930,0
0.4581115722656250,0.2230848312377930,0
0.4707183837890625,0.2171842575073242,0
0.4966478347778320,0.2171842575073242,0
0.4807342529296875,0.2258525848388672,0
0.4555051803588867,0.2258525848388672,0
0.4599906921386718,0.2176568984985351,0
0.4722742080688476,0.2176568984985351,0
0.4728618621826172,0.2265609741210937,0
0.4585309982299804,0.2265609741210937,0
0.4770692825317382,0.2254262924194336,0
0.4608959197998047,0.2254262924194336,0
0.4733928680419922,0.2195577621459961,0
0.4995586395263671,0.2195577621459961,0
0.4839380264282226,0.2283725738525391,0
0.4586643218994140,0.2283725738525391,0
0.4630840301513672,0.2203016281127930,0
0.4753572463989257,0.2203016281127930,0
0.4759328842163086,0.2294792175292969,0
0.4616941452026367,0.2294792175292969,0
0.4800441741943359,0.2280326843261719,0
0.4638982772827148,0.2280326843261719,0
0.4761577606201172,0.2218729019165039,0
0.5022605895996094,0.2218729019165039,0
0.4866662979125976,0.2305738449096680,0
0.4612466812133789,0.2305738449096680,0
0.4654895782470703,0.2223924636840820,0
0.4776454925537109,0.2223924636840820,0
0.4782743453979492,0.2314407348632812,0
0.4640464782714844,0.2314407348632812,0
0.4821830749511719,0.2297023773193359,0
0.4659067153930664,0.2297023773193359,0
0.4780265808105468,0.2234241485595703,0
0.5039365768432617,0.2234241485595703,0
0.4884286880493164,0.2320558547973633,0
0.4630582809448242,0.2320558547973633,0
0.4671501159667968,0.2237108230590820,0
0.4790800094604492,0.2237108230590820,0
0.4791234970092773,0.2320632934570312,0
0.4639623641967773,0.2320632934570312,0
0.4809637069702148,0.2279079437255859,0
0.4628671646118164,0.2279079437255859,0
0.4725008010864258,0.2178977966308594,0
0.4956705093383789,0.2178977966308594,0
0.4777256011962890,0.2223295211791992,0
0.4499198913574219,0.2223295211791992,0
0.4518836975097656,0.2102645874023437,0
0.4617811203002929,0.2102645874023437,0
0.4603837966918945,0.2161840438842773,0
0.4397157669067382,0.2030405044555664,0
0.4595031738281250,0.2153451919555664,0
0.4392316818237305,0.2034198760986328,0
0.4435729980468750,0.2251544952392578,0
0.4435729980468750,0.2150482177734375,0
0.4569316864013672,0.2109575271606445,0
0.4410186767578125,0.2023086547851562,0
0.4530086517333984,0.2023086547851562,0
0.4535076141357421,0.2112585067749023,0
0.4397031784057617,0.2112585067749023,0
0.4578798294067383,0.2095195770263672,0
0.4417768478393554,0.2095195770263672,0
0.4537834167480468,0.2036064147949219,0
0.4800882339477539,0.2036064147949219,0
0.4651411056518555,0.2131811141967773,0
0.4601818084716797,0.2131811141967773,0
0.4452117919921875,0.2059701919555664,0
0.4579490661621093,0.2059701919555664,0
0.4591117858886719,0.2159242630004883,0
0.4458343505859375,0.2159242630004883,0
0.4642656326293945,0.2148891448974609,0
0.4484779357910156,0.2148891448974609,0
0.4604850769042969,0.2091053009033203,0
0.4867366790771484,0.2091053009033203,0
0.4718404769897461,0.2185724258422851,0
0.4471481323242187,0.2185724258422851,0
0.4516445159912109,0.2110496520996094,0
0.4640584945678711,0.2110496520996094,0
0.4648338317871094,0.2205814361572266,0
0.4515684127807617,0.2205814361572266,0
0.4693771362304687,0.2192470550537109,0
0.4533376693725586,0.2192470550537109,0
0.4649087905883789,0.2128372192382812,0
0.4910614013671875,0.2128372192382812,0
0.4760742187500000,0.2222076416015625,0
0.4514568328857422,0.2222076416015625,0
0.4560562133789062,0.2146471023559570,0
0.4684444427490234,0.2146471023559570,0
0.4692678451538086,0.2243928909301758,0
0.4563034057617187,0.2243928909301758,0
0.4737710952758789,0.2230705261230469,0
0.4575679779052734,0.2230705261230469,0
0.4687597274780273,0.2160713195800781,0
0.4945329666137695,0.2160713195800781,0
0.4792453765869140,0.2246080398559570,0
0.4541175842285156,0.2246080398559570,0
0.4581321716308593,0.2161828994750976,0
0.4698406219482422,0.2161828994750976,0
0.4701330184936523,0.2247602462768555,0
0.4565975189208984,0.2247602462768555,0
0.4734415054321289,0.2225755691528320,0
0.4565317153930664,0.2225755691528320,0
0.4670694351196289,0.2144079208374023,0
0.4923809051513672,0.2144079208374023,0
0.4767093658447266,0.2223209381103516,0
0.4512193679809570,0.2223209381103516,0
0.4549364089965820,0.2134523391723633,0
0.4601165771484375,0.2134523391723633,0
0.4668262481689453,0.2220319747924805,0
0.4535739898681641,0.2220319747924805,0
0.4704374313354492,0.2203525543212891,0
0.4538200378417969,0.2203525543212891,0
0.4645746231079101,0.2125688552856445,0
0.4555498123168945,0.2125688552856445,0
0.4751123428344726,0.2212091445922852,0
0.4501625061035156,0.2212091445922852,0
0.4544294357299805,0.2130661010742188,0
0.4665676116943359,0.2130661010742188,0
0.4672336578369141,0.2224851608276367,0
0.4545513153076172,0.2224851608276367,0
0.4718204498291015,0.2214483261108398,0
0.4555234909057617,0.2214483261108398,0
0.4665922164916992,0.2143507003784180,0
0.4927579879760742,0.2143507003784180,0
0.4779035568237304,0.2234544754028320,0
0.4532724380493164,0.2234544754028320,0
0.4577476501464843,0.2158658981323242,0
0.4700929641723632,0.2158658981323242,0
0.4708717346191406,0.2254434585571289,0
0.4583959579467773,0.2254434585571289,0
0.4756433486938476,0.2247413635253906,0
0.4592880249023437,0.2247413635253906,0
0.4703058242797851,0.2173370361328125,0
0.4962289810180664,0.2173370361328125,0
0.4811336517333984,0.2262050628662109,0
0.4563491821289062,0.2262050628662109,0
0.4606195449829101,0.2183235168457031,0
0.4727771759033203,0.2183235168457031,0
0.4734340667724609,0.2277448654174805,0
0.4609691619873046,0.2277448654174805,0
0.4779968261718750,0.2268596649169922,0
0.4614263534545898,0.2268596649169922,0
0.4723743438720703,0.2192173004150391,0
0.4983066558837890,0.2192173004150391,0
0.4831026077270508,0.2280321121215820,0
0.4584257125854492,0.2280321121215820,0
0.4627532958984375,0.2202203750610351,0
0.4748765945434570,0.2202203750610351,0
0.4756422042846680,0.2297149658203125,0
0.4634050369262695,0.2297149658203125,0
0.4803783416748046,0.2289253234863281,0
0.4639514923095703,0.2289253234863281,0
0.4751461029052734,0.2214574813842773,0
0.5012563705444336,0.2214574813842773,0
0.4859132766723633,0.2303712844848633,0
0.4614109039306640,0.2303712844848633,0
0.4658494949340820,0.2227306365966797,0
0.4781661987304687,0.2227306365966797,0
0.4789054870605469,0.2322126388549804,0
0.4665527343750000,0.2322126388549804,0
0.4833904266357422,0.2309761047363281,0
0.4662940979003906,0.2309761047363281,0
0.4766412734985351,0.2217493057250977,0
0.5011470794677734,0.2217493057250977,0
0.4834751129150390,0.2273780822753906,0
0.4563154220581054,0.2273780822753906,0
0.4579713821411133,0.2152496337890625,0
0.4675008773803710,0.2152496337890625,0
0.4658334732055664,0.2206626892089844,0
0.4514591217041015,0.2206626892089844,0
0.4660268783569336,0.2163253784179688,0
0.4475744247436523,0.2163253784179688,0
0.4573774337768555,0.2057109832763672,0
0.4817138671875000,0.2057109832763672,0
0.4643651962280273,0.2122369766235352,0
0.4385850906372070,0.2122369766235352,0
0.4419525146484375,0.2029546737670898,0
0.4533313751220703,0.2029546737670898,0
0.4536334991455078,0.2114822387695312,0
0.4413717269897461,0.2114822387695312,0
0.4578094482421875,0.2106531143188476,0
0.4791194915771484,0.2024923324584961,0
0.4629272460937500,0.2115829467773437,0
0.4386188507080078,0.2115829467773437,0
0.4433252334594727,0.2044441223144531,0
0.4559326171875000,0.2044441223144531,0
0.4570867538452148,0.2147277832031250,0
0.4459768295288086,0.2147277832031250,0
0.4629690170288085,0.2151838302612305,0
0.4468992233276367,0.2151838302612305,0
0.4593652725219726,0.2077898025512695,0
0.4859601974487304,0.2077898025512695,0
0.4697742462158203,0.2172998428344727,0
0.4455991744995117,0.2172998428344727,0
0.4502740859985351,0.2103052139282227,0
0.4628454208374023,0.2103052139282227,0
0.4639114379882812,0.2201545715332031,0
0.4525646209716797,0.2201545715332031,0
0.4694847106933593,0.2204938888549805,0
0.4532672882080078,0.2204938888549805,0
0.4655679702758789,0.2127948760986328,0
0.4920415878295898,0.2127948760986328,0
0.4756027221679687,0.2220880508422851,0
0.4514476776123046,0.2220880508422851,0
0.4561878204345703,0.2149492263793945,0
0.4687545776367187,0.2149492263793945,0
0.4698097229003906,0.2250343322753906,0
0.4587066650390625,0.2250343322753906,0
0.4753583908081054,0.2254955291748047,0
0.4590385437011719,0.2254955291748047,0
0.4712362289428711,0.2175224304199219,0
0.4974838256835937,0.2175224304199219,0
0.4806673049926757,0.2261592864990234,0
0.4561311721801757,0.2261592864990234,0
0.4602190017700195,0.2182159423828125,0
0.4721614837646484,0.2182159423828125,0
0.4726604461669922,0.2269311904907226,0
0.4606973648071289,0.2269311904907226,0
0.4766744613647461,0.2262611389160156,0
0.4595191955566406,0.2262611389160156,0
0.4710033416748047,0.2169748306274414,0
0.4964996337890625,0.2169748306274414,0
0.4791131973266601,0.2244775772094726,0
0.4540037155151367,0.2244775772094726,0
0.4575204849243164,0.2157680511474609,0
0.4690813064575195,0.2157680511474609,0
0.4693525314331055,0.2241743087768555,0
0.4573528289794921,0.2241743087768555,0
0.4732280731201172,0.2235105514526367,0
0.4561431884765625,0.2235105514526367,0
0.4678213119506835,0.2144954681396484,0
0.4936065673828125,0.2144954681396484,0
0.4764043807983398,0.2223484039306640,0
0.4516222000122070,0.2223484039306640,0
0.4556545257568359,0.2143856048583984,0
0.4675020217895507,0.2143856048583984,0
0.4681629180908203,0.2234006881713867,0
0.4562976837158203,0.2234006881713867,0
0.4728452682495117,0.2232650756835937,0
0.4560590744018554,0.2232650756835937,0
0.4680570602416992,0.2148216247558594,0
0.4940958023071289,0.2148216247558594,0
0.4771551132202148,0.2231512069702148,0
0.4525966644287109,0.2231512069702148,0
0.4568973541259765,0.2154384613037109,0
0.4689748764038086,0.2154384613037109,0
0.4697278976440429,0.2247871398925781,0
0.4581848144531250,0.2247871398925781,0
0.4747335433959960,0.2249616622924805,0
0.4580480575561523,0.2249616622924805,0
0.4700878143310547,0.2166303634643555,0
0.4962701797485352,0.2166303634643555,0
0.4793329238891602,0.2249908447265625,0
0.4548706054687500,0.2249908447265625,0
0.4591203689575195,0.2173524856567383,0
0.4712608337402344,0.2173524856567383,0
0.4719898223876953,0.2268041610717773,0
0.4603116989135742,0.2268041610717773,0
0.4768547058105468,0.2269672393798828,0
0.4603185653686523,0.2269672393798828,0
0.4724132537841796,0.2185363769531250,0
0.4985973358154296,0.2185363769531250,0
0.4818054199218750,0.2270238876342773,0
0.4571891784667969,0.2270238876342773,0
0.4615161895751953,0.2194021224975586,0
0.4737270355224609,0.2194021224975586,0
0.4745006561279297,0.2289407730102539,0
0.4630937576293945,0.2289407730102539,0
0.4796916961669921,0.2292377471923828,0
0.4631418228149414,0.2292377471923828,0
0.4752771377563476,0.2209751129150390,0
0.5014617919921874,0.2209751129150390,0
0.4846984863281250,0.2294540405273438,0
0.4602487564086914,0.2294540405273438,0
0.4645357131958008,0.2218740463256836,0
0.4766876220703125,0.2218740463256836,0
0.4772924423217773,0.2311637878417969,0
0.4656200408935547,0.2311637878417969,0
0.4822671890258789,0.2312656402587890,0
0.4654340744018555,0.2312656402587890,0
0.4771780014038086,0.2224342346191406,0
0.5029146194458007,0.2224342346191406,0
0.4853805541992187,0.2296571731567383,0
0.4597703933715820,0.2296571731567383,0
0.4623842239379883,0.2194433212280273,0
0.4723709106445312,0.2194433212280273,0
0.4707498550415039,0.2248083114624023,0
0.4567440032958984,0.2248083114624023,0
0.4710851669311523,0.2214677810668945,0
0.4521560668945312,0.2214677810668945,0
0.4620574951171875,0.2094022750854492,0
0.4862571716308594,0.2094022750854492,0
0.4677291870117187,0.2149297714233398,0
0.4415250778198242,0.2149297714233398,0
0.4443717956542969,0.2047754287719727,0
0.4553037643432617,0.2047754287719727,0
0.4549398422241211,0.2126163482666016,0
0.4424846649169922,0.2126163482666016,0
0.4585412979125976,0.2117963790893555,0
0.4414014816284180,0.2117963790893555,0
0.4532026290893554,0.2028110504150391,0
0.4791011810302734,0.2028110504150391,0
0.4622171401977539,0.2111297607421875,0
0.4377565383911133,0.2111297607421875,0
0.4420766830444336,0.2034685134887695,0
0.4544391632080078,0.2034685134887695,0
0.4553833007812500,0.2135650634765625,0
0.4443071365356445,0.2135650634765625,0
0.4611001968383789,0.2143678665161133,0
0.4450298309326172,0.2143678665161133,0
0.4576108932495117,0.2066905975341797,0
0.4842842102050781,0.2066905975341797,0
0.4680364608764648,0.2161394119262695,0
0.4440118789672852,0.2161394119262695,0
0.4488338470458984,0.2091510772705078,0
0.4615053176879882,0.2091510772705078,0
0.4626148223876953,0.2195858001708984,0
0.4513858795166015,0.2195858001708984,0
0.4683723449707031,0.2202964782714844,0
0.4521560668945312,0.2202964782714844,0
0.4646896362304687,0.2124280929565430,0
0.4911026000976562,0.2124280929565430,0
0.4746007919311523,0.2214477539062500,0
0.4503644943237304,0.2214477539062500,0
0.4549793243408203,0.2141527175903320,0
0.4674282073974609,0.2141527175903320,0
0.4684358596801758,0.2243236541748047,0
0.4522035598754883,0.2452022552490234,0
0.4734649658203125,0.2058923721313476,0
0.4548831939697265,0.2278261184692383,0
0.4662683486938476,0.2285305023193359,0
0.4800270080566406,0.2258371353149414,0
0.4598207473754883,0.2180700302124023,0
0.4724704742431640,0.2072015762329102,0
0.4607414245605468,0.2273729324340820,0
0.4769577026367187,0.2271039962768555,0
0.4717363357543945,0.2179040908813477,0
0.4614349365234375,0.2289184570312500,0
0.4742282867431640,0.2069103240966797,0
0.4630989074707031,0.2168415069580078,0
0.4630989074707031,0.2254623413085937,0
0.4686029434204101,0.2152181625366211,0
0.4557123184204102,0.2145486831665039,0
0.4561317443847656,0.2235271453857422,0
0.4510030746459961,0.2113832473754883,0
0.4710165023803711,0.2257484436035156,0
0.4573316574096680,0.2356979370117187,0
0.4627092361450195,0.2257804870605469,0
0.4793769836425781,0.2074504852294922,0
0.4560579299926757,0.2149063110351563,0
0.4686681747436523,0.2041631698608398,0
0.4735731124877929,0.2204509735107422,0
0.4568698883056641,0.2244192123413086,0
0.4690910339355469,0.2159620285034180,0
0.4783109664916992,0.2243116378784180,0
0.4727680206298828,0.2089101791381836,0
0.4627927780151367,0.2065881729125977,0
0.4540821075439453,0.2259458541870117,0
0.4540821075439453,0.2141012191772461,0
0.4746677398681640,0.2289756774902344,0
0.4613628387451172,0.2390676498413086,0
0.4668663024902344,0.2291330337524414,0
0.4601961135864258,0.2110610961914063,0
0.4601961135864258,0.2186227798461914,0
0.4731851577758789,0.2280899047851562,0
0.4781822204589843,0.2283811569213867,0
0.4769422531127929,0.2090309143066406,0
0.4997297286987304,0.2199451446533203,0
0.4584457397460937,0.2283937454223633,0
0.4775688171386718,0.2130620956420898,0
0.4675403594970703,0.2300640106201172,0
0.4755157470703125,0.2507205963134765,0
0.4951108932495117,0.2182256698608398,0
0.4604988098144531,0.2329404830932617,0
0.4759374618530273,0.2219118118286133,0
0.4852563858032226,0.2301246643066406,0
0.4795892715454101,0.2301246643066406,0
0.4757194519042969,0.2217910766601562,0
0.4753612518310547,0.2292921066284180,0
0.4573888778686523,0.2159545898437500,0
0.4730781555175781,0.2050020217895508,0
0.4912662506103516,0.2141029357910156,0
0.4553071975708007,0.2234870910644531,0
0.4648372650146484,0.2019144058227539,0
0.4479658126831055,0.2368120193481445,0
0.4576057434082031,0.1947200775146484,0
0.4601194381713867,0.2132623672485351,0
0.4578735351562500,0.1930383682250977,0
0.4791229248046875,0.2034605026245117,0
0.4620014190673828,0.2109958648681640,0
0.4560659408569336,0.1955080032348633,0
0.4457090377807617,0.1928987503051758,0
0.4424715042114258,0.2121105194091797,0
0.4373622894287109,0.2004249572753906,0
0.4579101562500000,0.2154745101928711,0
0.4549312591552734,0.2182319641113281,0
0.4651433944702148,0.1973150253295898,0
0.4409299850463867,0.2137407302856445,0
0.4580188751220703,0.2068485260009766,0
0.4507850646972656,0.2165559768676758,0
0.4433681488037109,0.2054431915283203,0
0.4652149200439453,0.2054431915283203,0
0.4614664077758789,0.2207525253295898,0
0.4614664077758789,0.2101839065551758,0
0.4715389251708984,0.2190605163574219,0
0.4662574768066406,0.2039388656616211,0
0.4567731857299804,0.2214162826538086,0
0.4651462554931640,0.2214162826538086,0
0.4711057662963867,0.2101461410522461,0
0.4711057662963867,0.2224782943725586,0
0.4935813903808594,0.2148439407348633,0
0.4574478149414062,0.2262216567993164,0
0.4719125747680664,0.2059370040893555,0
0.4696409225463867,0.2164712905883789,0
0.4624202728271484,0.2260105133056640,0
0.4545381546020508,0.2143524169921875,0
0.4757091522216796,0.2223375320434570,0
0.4710096359252929,0.2309738159179687,0
0.4710096359252929,0.2177673339843750,0
0.4547212600708008,0.2255596160888672,0
0.4737138748168945,0.2099224090576172,0
0.4627624511718750,0.2261072158813476,0
0.4702646255493164,0.2056875228881836,0
0.4742860794067383,0.2209516525268555,0
0.4569465637207031,0.2250555038452148,0
0.4941799163818359,0.2157606124877930,0
0.4581521987915039,0.2262079238891601,0
0.4706932067871094,0.2073772430419922,0
0.4551824569702148,0.2432407379150391,0
0.4673887252807617,0.2031417846679688,0
0.4673887252807617,0.2231369018554688,0
0.4547309875488281,0.2230115890502930,0
0.4701622009277344,0.2252323150634765,0
0.4565820693969727,0.2250183105468750,0
0.4757841110229492,0.2250183105468750,0
0.4547046661376953,0.2066814422607422,0
0.4547046661376953,0.2142253875732422,0
0.4674745559692383,0.2233863830566406,0
0.4512050628662109,0.2115354537963867,0
0.4709283828735351,0.2259183883666992,0
0.4675981521606445,0.2284263610839844,0
0.4769800186157226,0.2069795608520508,0
0.4522727966308593,0.2233486175537109,0
0.4681400299072265,0.2155334472656250,0
0.4611007690429687,0.2240741729736328,0
0.4527139663696289,0.2128211975097656,0
0.4739587783813476,0.2207931518554687,0
0.4691001892089843,0.2297430038452148,0
0.4953226089477539,0.2167631149291992,0
0.4538492202758789,0.2249021530151367,0
0.4728801727294922,0.2091945648193359,0
0.4627710342407226,0.2253358840942383,0
0.4705736160278320,0.2054294586181641,0
0.4756748199462890,0.2223758697509766,0
0.4588972091674804,0.2262754440307617,0
0.4970363616943359,0.2183561325073242,0
0.4611957550048828,0.2291982650756836,0
0.4749017715454101,0.2108911514282227,0
0.4598636627197266,0.2472793579101562,0
0.4728034973144531,0.2272636413574219,0
0.4728034973144531,0.2164878845214844,0
0.4779819488525390,0.2282186508178711,0
0.4733922958374023,0.2336437225341797,0
0.4996210098266601,0.2205551147460937,0
0.4583587646484375,0.2290792465209961,0
0.4621192932128906,0.2207719802856445,0
0.4670093536376953,0.2105335235595703,0
0.4572320938110351,0.2165016174316406,0
0.4774211883544922,0.2165016174316406,0
0.4530458450317383,0.2281213760375976,0
0.4568664550781250,0.2248529434204102,0
0.4739948272705078,0.2209247589111328,0
0.4523426055908203,0.2091802597045898,0
0.4523426055908203,0.2162578582763672,0
0.4404705047607422,0.2027006149291992,0
0.4575359344482421,0.1931940078735352,0
0.4575359344482421,0.2151168823242187,0
0.4427942276000976,0.2137647628784180,0
0.4475269317626953,0.2137647628784180,0
0.4551733016967773,0.1945117950439453,0
0.4629884719848633,0.1945117950439453,0
0.4445697784423828,0.2104625701904297,0
0.4301490783691406,0.2104625701904297,0
0.4358596801757812,0.1993835449218750,0
0.4715566635131836,0.1993835449218750,0
0.4555870056152344,0.2140182495117187,0
0.4368787765502929,0.2140182495117187,0
0.4432777404785156,0.2145252227783203,0
0.4489202499389648,0.2145252227783203,0
0.4575582504272461,0.1964864730834961,0
0.4660657882690429,0.1964864730834961,0
0.4482936859130859,0.2138031005859375,0
0.4345109939575195,0.2138031005859375,0
0.4404785156250000,0.2034009933471680,0
0.4768135070800781,0.2034009933471680,0
0.4611328125000000,0.2187274932861328,0
0.4426420211791992,0.2187274932861328,0
0.4493150711059570,0.2196990966796875,0
0.4551721572875976,0.2196990966796875,0
0.4638273239135742,0.2016506195068359,0
0.4723857879638672,0.2016506195068359,0
0.4544288635253906,0.2187429428100586,0
0.4404996871948242,0.2187429428100586,0
0.4463991165161132,0.2082201004028320,0
0.4825475692749023,0.2082201004028320,0
0.4667512893676757,0.2232210159301758,0
0.4480081558227539,0.2232210159301758,0
0.4546669006347656,0.2241176605224609,0
0.4603540420532226,0.2241176605224609,0
0.4689182281494140,0.2059719085693359,0
0.4773839950561523,0.2059719085693359,0
0.4594196319580078,0.2228942871093750,0
0.4454280853271484,0.2228942871093750,0
0.4511054992675781,0.2121311187744141,0
0.4871355056762695,0.2121311187744141,0
0.4710823059082031,0.2268253326416015,0
0.4520925521850586,0.2268253326416015,0
0.4582345962524414,0.2269289016723633,0
0.4636293411254883,0.2269289016723633,0
0.4716464996337890,0.2079631805419922,0
0.4796195983886719,0.2079631805419922,0
0.4609880447387695,0.2239093780517578,0
0.4463613510131836,0.2239093780517578,0
0.4514602661132812,0.2121757507324219,0
0.4869003295898438,0.2121757507324219,0
0.4702823638916016,0.2259721755981445,0
0.4509172439575195,0.2259721755981445,0
0.4566633224487304,0.2253908157348633,0
0.4616146087646484,0.2253908157348633,0
0.4693462371826171,0.2061876296997070,0
0.4770132064819336,0.2061876296997070,0
0.4585618972778320,0.2219913482666016,0
0.4440238952636719,0.2219913482666016,0
0.4488904953002930,0.2101066589355469,0
0.4844232559204101,0.2101066589355469,0
0.4680519104003906,0.2241096496582031,0
0.4488206863403320,0.2241096496582031,0
0.4549015045166016,0.2240261077880859,0
0.4602041244506836,0.2240261077880859,0
0.4681463241577148,0.2052749633789062,0
0.4761262893676758,0.2052749633789062,0
0.4579256057739258,0.2215261459350586,0
0.4436153411865234,0.2215261459350586,0
0.4489419937133789,0.2102251052856445,0
0.4847219467163086,0.2102251052856445,0
0.4684907913208007,0.2246212005615234,0
0.4494009017944336,0.2246212005615234,0
0.4557689666748047,0.2249170303344727,0
0.4613754272460937,0.2249170303344727,0
0.4693857192993164,0.2064033508300781,0
0.4775293350219726,0.2064033508300781,0
0.4595340728759765,0.2229028701782227,0
0.4452976226806640,0.2229028701782227,0
0.4506546020507812,0.2118438720703125,0
0.4865890502929687,0.2118438720703125,0
0.4705352783203125,0.2262880325317383,0
0.4514596939086914,0.2262880325317383,0
0.4578987121582031,0.2266725540161133,0
0.4635972976684570,0.2266725540161133,0
0.4716625213623047,0.2082292556762695,0
0.4797094345092773,0.2082292556762695,0
0.4617370605468750,0.2247825622558594,0
0.4475669860839844,0.2247825622558594,0
0.4527917861938476,0.2136732101440430,0
0.4888635635375976,0.2136732101440430,0
0.4727920532226562,0.2281768798828125,0
0.4538480758666992,0.2281768798828125,0
0.4601383209228516,0.2286724090576172,0
0.4657562255859375,0.2286724090576172,0
0.4739278793334961,0.2101060867309570,0
0.4820125579833984,0.2101060867309570,0
0.4640665054321289,0.2268585205078125,0
0.4499015808105469,0.2268585205078125,0
0.4551240921020507,0.2155666351318359,0
0.4912244796752929,0.2155666351318359,0
0.4752193450927734,0.2302671432495117,0
0.4563755035400390,0.2302671432495117,0
0.4626926422119140,0.2308559417724609,0
0.4683815002441406,0.2308559417724609,0
0.4766441345214844,0.2125373840332031,0
0.4847190856933594,0.2125373840332031,0
0.4667129516601562,0.2289075851440430,0
0.4524164199829102,0.2289075851440430,0
0.4572555541992187,0.2277236938476562,0
0.4755123138427734,0.2078001022338867,0
0.4709501266479492,0.2274347305297851,0
0.4628522872924805,0.2274347305297851,0
0.4689405441284180,0.2053968429565430,0
0.4748474121093750,0.2053968429565430,0
0.4547658920288086,0.2181707382202148,0
0.4385604858398438,0.2181707382202148,0
0.4419113159179687,0.2042530059814453,0
0.4759649276733398,0.2042530059814453,0
0.4588354110717773,0.2160438537597656,0
0.4386457443237304,0.2160438537597656,0
0.4433835983276367,0.2146871566772461,0
0.4481105804443359,0.2146871566772461,0
0.4556138992309570,0.1948963165283203,0
0.4398136138916016,0.1948963165283203,0
0.4444782257080078,0.2107715606689453,0
0.4300363540649414,0.2107715606689453,0
0.4348703384399414,0.1988153457641602,0
0.4705312728881836,0.1988153457641602,0
0.4547727584838867,0.2130970001220703,0
0.4360324859619141,0.2130970001220703,0
0.4420097351074219,0.2137596130371094,0
0.4480024337768554,0.2137596130371094,0
0.4561466217041015,0.1958759307861328,0
0.4643674850463867,0.1958759307861328,0
0.4466886520385742,0.2130809783935547,0
0.4329648971557617,0.2130809783935547,0
0.4382183074951172,0.2017255783081055,0
0.4745023727416992,0.2017255783081055,0
0.4593137741088867,0.2169776916503906,0
0.4566370010375976,0.2169776916503906,0
0.4471057891845703,0.2182182312011719,0
0.4533485412597656,0.2182182312011719,0
0.4618022918701172,0.2005903244018555,0
0.4701610565185547,0.2005903244018555,0
0.4525978088378906,0.2179647445678711,0
0.4388208389282227,0.2179647445678711,0
0.4438499450683593,0.2064325332641601,0
0.4801460266113281,0.2064325332641601,0
0.4649024963378906,0.2214265823364258,0
0.4466691970825195,0.2214265823364258,0
0.4523008346557617,0.2225721359252930,0
0.4583782196044922,0.2225721359252930,0
0.4667221069335937,0.2047170639038086,0
0.4748926162719727,0.2047170639038086,0
0.4570981979370117,0.2218517303466797,0
0.4432199478149414,0.2218517303466797,0
0.4483245849609375,0.2102949142456055,0
0.4845680236816406,0.2102949142456055,0
0.4694566726684570,0.2251441955566406,0
0.4510585784912109,0.2251441955566406,0
0.4563846588134766,0.2259853363037109,0
0.4622835159301757,0.2259853363037109,0
0.4704185485839844,0.2077674865722656,0
0.4782629013061523,0.2077674865722656,0
0.4601680755615234,0.2240123748779297,0
0.4458412170410156,0.2240123748779297,0
0.4503198623657226,0.2118387222290039,0
0.4853885650634766,0.2118387222290039,0
0.4701639175415039,0.2252506256103516,0
0.4516834259033203,0.2252506256103516,0
0.4563211441040039,0.2255281448364258,0
0.4615608215332031,0.2255281448364258,0
0.4689216613769531,0.2059123992919922,0
0.4835248947143554,0.2059123992919922,0
0.4588800430297851,0.2223958969116211,0
0.4437726974487304,0.2223958969116211,0
0.4485500335693359,0.2102668762207031,0
0.4822162628173828,0.2102668762207031,0
0.4680885314941406,0.2229852676391602,0
0.4506568908691406,0.2229852676391602,0
0.4542932510375977,0.2237886428833008,0
0.4601314544677734,0.2237886428833008,0
0.4674694061279296,0.2056766510009766,0
0.4751638412475586,0.2056766510009766,0
0.4573265075683594,0.2214792251586914,0
0.4433727264404297,0.2214792251586914,0
0.4477478027343750,0.2094646453857422,0
0.4826253890991211,0.2094646453857422,0
0.4678676605224609,0.2234201431274414,0
0.4498186111450195,0.2234201431274414,0
0.4548225402832031,0.2243408203125000,0
0.4603866577148437,0.2243408203125000,0
0.4683099746704101,0.2063764572143555,0
0.4764232635498047,0.2063764572143555,0
0.4586551666259766,0.2224634170532226,0
0.4448226928710937,0.2224634170532226,0
0.4491714477539062,0.2109792709350586,0
0.4844718933105469,0.2109792709350586,0
0.4697731018066406,0.2250200271606445,0
0.4524387359619140,0.2250200271606445,0
0.4567869186401367,0.2262187957763672,0
0.4624631881713867,0.2262187957763672,0
0.4706651687622070,0.2083322525024414,0
0.4785123825073242,0.2083322525024414,0
0.4607872009277343,0.2242727279663086,0
0.4679935455322266,0.2242727279663086,0
0.4511930465698242,0.2126398086547852,0
0.4864419937133789,0.2126398086547852,0
0.4719039916992187,0.2268522262573242,0
0.4540523529052734,0.2268522262573242,0
0.4588834762573242,0.2281059265136719,0
0.4645631790161133,0.2281059265136719,0
0.4726627349853516,0.2100580215454101,0
0.4807445526123046,0.2100580215454101,0
0.4629375457763671,0.2262634277343750,0
0.4491394042968750,0.2262634277343750,0
0.4534990310668945,0.2147546768188477,0
0.4888212203979492,0.2147546768188477,0
0.4744245529174804,0.2289665222167969,0
0.4564750671386719,0.2289665222167969,0
0.4614303588867187,0.2302396774291992,0
0.4671861648559570,0.2302396774291992,0
0.4753349304199219,0.2123605728149414,0
0.4832422256469726,0.2123605728149414,0
0.4655473709106445,0.2283571243286133,0
0.4517023086547851,0.2283571243286133,0
0.4559223175048828,0.2166183471679687,0
0.4909978866577148,0.2166183471679687,0
0.4761268615722656,0.2300634384155273,0
0.4574707031250000,0.2300634384155273,0
0.4612976074218750,0.2296131134033203,0
0.4655525207519531,0.2296131134033203,0
0.4716419219970703,0.2085084915161133,0
0.4774526596069336,0.2085084915161133,0
0.4577974319458007,0.2210134506225586,0
0.4417465209960937,0.2210134506225586,0
0.4437995910644531,0.2061401367187500,0
0.4772392272949219,0.2061401367187500,0
0.4611637115478515,0.2171899795532226,0
0.4416080474853515,0.2171899795532226,0
0.4449033737182617,0.2161903381347656,0
0.4493425369262695,0.2161903381347656,0
0.4564384460449218,0.1962879180908203,0
0.4633094787597656,0.1962879180908203,0
0.4448289871215820,0.2108173370361328,0
0.4303407669067383,0.2108173370361328,0
0.4341058731079102,0.1986682891845703,0
0.4691659927368164,0.1986682891845703,0
0.4544191360473633,0.2122621536254883,0
0.4364175796508789,0.2122621536254883,0
0.4411771774291992,0.2136217117309570,0
0.4471452713012695,0.2136217117309570,0
0.4552282333374023,0.1957500457763672,0
0.4632253646850586,0.1957500457763672,0
0.4456912994384766,0.2116716384887695,0
0.4320379257202148,0.2116716384887695,0
0.4362075805664062,0.2008369445800781,0
0.4719440460205078,0.2008369445800781,0
0.4579708099365234,0.2152782440185547,0
0.4404951095581054,0.2152782440185547,0
0.4454137802124024,0.2175035476684570,0
0.4518539428710937,0.2175035476684570,0
0.4600736618041992,0.2003139495849609,0
0.4683958053588867,0.2003139495849609,0
0.4510419845581055,0.2162527084350586,0
0.4375282287597656,0.2162527084350586,0
0.4418397903442383,0.2054861068725586,0
0.4774183273315429,0.2054861068725586,0
0.4634502410888672,0.2197134017944336,0
0.4458681106567383,0.2197134017944336,0
0.4507495880126953,0.2218282699584961,0
0.4571468353271484,0.2218282699584961,0
0.4653551101684570,0.2046232223510742,0
0.4733327865600586,0.2046232223510742,0
0.4560384750366211,0.2201608657836914,0
0.4424806594848633,0.2201608657836914,0
0.4464523315429688,0.2093112945556641,0
0.4820623397827148,0.2093112945556641,0
0.4681222915649414,0.2235368728637695,0
0.4504869461059570,0.2235368728637695,0
0.4551715850830078,0.2254755020141601,0
0.4615001678466797,0.2254755020141601,0
0.4694641113281250,0.2078556060791016,0
0.4775745391845703,0.2078556060791016,0
0.4609342575073242,0.2231489181518555,0
0.4441738128662109,0.2231489181518555,0
0.4489665985107422,0.2111915588378906,0
0.4843809127807617,0.2111915588378906,0
0.4696792602539062,0.2245290756225586,0
0.4517572402954101,0.2245290756225586,0
0.4556499481201172,0.2258485794067383,0
0.4616008758544922,0.2258485794067383,0
0.4691722869873047,0.2072032928466797,0
0.4767093658447266,0.2072032928466797,0
0.4584096908569336,0.2217475891113281,0
0.4441629409790039,0.2217475891113281,0
0.4472219467163086,0.2099184036254883,0
0.4824548721313476,0.2099184036254883,0
0.4678819656372070,0.2231019973754883,0
0.4496961593627929,0.2231019973754883,0
0.4538246154785156,0.2244689941406250,0
0.4598573684692382,0.2244689941406250,0
0.4675157546997070,0.2061252593994141,0
0.4749389648437500,0.2061252593994141,0
0.4570518493652344,0.2206655502319336,0
0.4431947708129882,0.2206655502319336,0
0.4465770721435547,0.2093290328979492,0
0.4817316055297851,0.2093290328979492,0
0.4674493789672851,0.2227901458740234,0
0.4494775772094726,0.2227901458740234,0
0.4538114547729492,0.2245697021484375,0
0.4602378845214843,0.2245697021484375,0
0.4681646347045898,0.2068222045898437,0
0.4756793975830078,0.2068222045898437,0
0.4580589294433594,0.2215776443481445,0
0.4445554733276367,0.2215776443481445,0
0.4477054595947266,0.2105283737182617,0
0.4829681396484375,0.2105283737182617,0
0.4689748764038086,0.2242155075073242,0
0.4509344100952148,0.2242155075073242,0
0.4555669784545898,0.2261758804321289,0
0.4747055053710937,0.2261758804321289,0
0.4701524734497070,0.2084770202636719,0
0.4775436401367187,0.2084770202636719,0
0.4600421905517578,0.2233835220336914,0
0.4458738327026367,0.2233835220336914,0
0.4493894577026367,0.2119337081909180,0
0.4855676651000976,0.2119337081909180,0
0.4710102081298828,0.2258245468139648,0
0.4527334213256836,0.2258245468139648,0
0.4575227737426757,0.2279445648193359,0
0.4642478942871093,0.2279445648193359,0
0.4722799301147461,0.2105077743530273,0
0.4795572280883789,0.2105077743530273,0
0.4621393203735351,0.2255092620849609,0
0.4469455718994140,0.2255092620849609,0
0.4512451171875000,0.2138408660888672,0
0.4877792358398437,0.2138408660888672,0
0.4731473922729492,0.2276887893676758,0
0.4551727294921875,0.2276887893676758,0
0.4597658157348632,0.2299701690673828,0
0.4668388366699219,0.2299701690673828,0
0.4745733261108398,0.2125133514404297,0
0.4816915512084960,0.2125133514404297,0
0.4644590377807617,0.2271600723266601,0
0.4507776260375976,0.2271600723266601,0
0.4537467956542969,0.2159025192260742,0
0.4899215698242188,0.2159025192260742,0
0.4754693984985351,0.2295856475830078,0
0.4569580078125000,0.2295856475830078,0
0.4615739822387695,0.2314407348632812,0
0.4681280136108398,0.2314407348632812,0
0.4748188018798828,0.2123273849487305,0
0.4805643081665039,0.2123273849487305,0
0.4616741180419922,0.2241428375244141,0
0.4458641052246093,0.2241428375244141,0
0.4469003677368164,0.2094903945922852,0
0.4811862945556640,0.2094903945922852,0
0.4648303985595703,0.2200029373168945,0
0.4445669174194336,0.2200029373168945,0
0.4476419448852539,0.2195165634155273,0
0.4531013488769531,0.2195165634155273,0
0.4593847274780273,0.1994304656982422,0
0.4651720046997070,0.1994304656982422,0
0.4467721939086914,0.2119623184204102,0
0.4318977355957031,0.2119623184204102,0
0.4340543746948242,0.1991586685180664,0
0.4698200225830078,0.1991586685180664,0
0.4549512863159180,0.2122798919677734,0
0.4361892700195312,0.2122798919677734,0
0.4407571792602539,0.2143449783325195,0
0.4477993011474609,0.2143449783325195,0
0.4554960250854492,0.1965047836303711,0
0.4625061035156250,0.1965047836303711,0
0.4452724456787109,0.2110691070556641,0
0.4315664291381836,0.2110691070556641,0
0.4344709396362305,0.1999036788940430,0
0.4711669921875000,0.1999036788940430,0
0.4570363998413086,0.2141790390014648,0
0.4389369964599609,0.2141790390014648,0
0.4440319061279297,0.2174119949340820,0
0.4516256332397461,0.2174119949340820,0
0.4597446441650390,0.2002195358276367,0
0.4671117782592773,0.2002195358276367,0
0.4501836776733398,0.2152994155883789,0
0.4365474700927734,0.2152994155883789,0
0.4395355224609375,0.2043148040771484,0
0.4765205383300781,0.2043148040771484,0
0.4623842239379883,0.2186462402343750,0
0.4441743850708008,0.2186462402343750,0
0.4491411209106445,0.2217973709106445,0
0.4565980911254883,0.2217973709106445,0
0.4647445678710938,0.2046747207641602,0
0.4720361709594726,0.2046747207641602,0
0.4550445556640625,0.2193792343139648,0
0.4413265228271484,0.2193792343139648,0
0.4440502166748047,0.2081399917602539,0
0.4811044692993164,0.2081399917602539,0
0.4669406890869141,0.2224153518676758,0
0.4487617492675781,0.2224153518676758,0
0.4536117553710937,0.2257123947143554,0
0.4610355377197266,0.2257123947143554,0
0.4692478179931641,0.2085548400878906,0
0.4764078140258789,0.2085548400878906,0
0.4593103408813476,0.2228422164916992,0
0.4453411102294922,0.2228422164916992,0
0.4682985305786133,0.2190181732177734,0
0.4682985305786133,0.2192178726196289,0
0.4697101593017578,0.2013776779174805,0
0.4667186737060547,0.2143203735351562,0
0.4747598648071289,0.2226814270019531,0
0.4505836486816406,0.2226814270019531,0
0.4540689468383789,0.2128498077392578,0
0.4660594940185547,0.2128498077392578,0
0.4655845642089844,0.2218311309814453,0
0.4469598770141601,0.2218311309814453,0
0.4672508239746094,0.2180294036865234,0
0.4515815734863281,0.2180294036865234,0
0.4653293609619140,0.2128641128540039,0
0.4891857147216797,0.2128641128540039,0
0.4731742858886718,0.2211639404296875,0
0.4489042282104492,0.2211639404296875,0
0.4523672103881836,0.2113471984863281,0
0.4643606185913086,0.2113471984863281,0
0.4640539169311523,0.2203880310058594,0
0.4455448150634765,0.2379215240478516,0
0.4672685623168945,0.2224536895751953,0
0.4643640518188477,0.2235013961791992,0
0.4605457305908203,0.2252786636352539,0
0.4683219909667968,0.2077835083007812,0
0.4525497436523437,0.2115079879760742,0
0.4645837783813476,0.2012340545654297,0
0.4827718734741211,0.2097301483154297,0
0.4666368484497070,0.2176706314086914,0
0.4656618118286133,0.2134065628051758,0
0.4742214202880859,0.2066802978515625,0
0.4541307449340820,0.2443862915039062,0
0.4664548873901367,0.2130414962768555,0
0.4524467468261719,0.2227174758911133,0
0.4532094955444336,0.2192390441894531,0
0.4702795028686523,0.2251430511474609,0
0.4566810607910156,0.2389503479003906,0
0.4719240188598632,0.2053613662719727,0
0.4788402557373047,0.2109489440917969,0
0.4618709564208984,0.2249479293823242,0
0.4500080108642578,0.2130580902099609,0
0.4703756332397461,0.2208389282226562,0
0.4698440551757812,0.2278787612915039,0
0.4781627655029297,0.2302305221557617,0
0.4781627655029297,0.2259155273437500,0
0.4583364486694336,0.2164363861083984,0
0.4706760406494140,0.2263040542602539,0
0.4522602081298828,0.2263040542602539,0
0.4577236175537109,0.2227449417114258,0
0.4965385437011718,0.2189844131469726,0
0.4613576889038086,0.2323968887329101,0
0.4765474319458007,0.2090572357177734,0
0.4723909378051758,0.2180305480957031,0
0.4657516479492188,0.2280412673950195,0
0.4517595291137695,0.2139970779418945,0
0.4704626083374023,0.2012529373168945,0
0.4503633499145507,0.2248861312866211,0
0.4708208084106445,0.2031326293945312,0
0.4449640274047851,0.2189981460571289,0
0.4470336914062500,0.2064176559448242,0
0.4561683654785156,0.2136034011840820,0
0.4363077163696289,0.2011224746704101,0
0.4565031051635742,0.1894649505615234,0
0.4532592773437500,0.2263629913330078,0
0.4481180191040039,0.2157331466674805,0
0.4624082565307617,0.1978706359863281,0
0.4398199081420898,0.2006629943847656,0
0.4517761230468750,0.1908519744873047,0
0.4532449722290039,0.2063301086425781,0
0.4557849884033203,0.2137910842895508,0
0.4778366088867188,0.2029232025146484,0
0.4386360168457031,0.2125465393066406,0
0.4583747863769531,0.2003688812255859,0
0.4489070892333984,0.2142614364624023,0
0.4556550979614258,0.2142614364624023,0
0.4744417190551757,0.2024997711181641,0
0.4576395034790039,0.2101186752319336,0
0.4585304260253906,0.2070562362670898,0
0.4475738525390625,0.2321691513061523,0
0.4636447906494141,0.1984485626220703,0
0.4705404281616211,0.2050031661987305,0
0.4402650833129882,0.2185512542724609,0
0.4606767654418945,0.2177799224853516,0
0.4621295928955078,0.2139375686645508,0
0.4651268005371094,0.1968944549560547,0
0.4519294738769531,0.2250955581665039,0
0.4713701248168945,0.2250955581665039,0
0.4522516250610351,0.2086824417114258,0
0.4522516250610351,0.2111103057861328,0
0.4505350112915039,0.2213968276977539,0
0.4463785171508789,0.2100517272949219,0
0.4689405441284180,0.2238035202026367,0
0.4666013717651367,0.2238035202026367,0
0.4744199752807617,0.2278713226318359,0
0.4744199752807617,0.2230459213256836,0
0.4537050247192382,0.2137664794921875,0
0.4598648071289062,0.2060400009155273,0
0.4472242355346679,0.2381383895874023,0
0.4829286575317382,0.2107343673706055,0
0.4498907089233398,0.2234848022460937,0
0.4663227081298828,0.2131851196289062,0
0.4734821319580078,0.2221767425537109,0
0.4691379547119141,0.2031366348266601,0
0.4585567474365234,0.2045265197753906,0
0.4441377639770508,0.2221418380737305,0
0.4817693710327148,0.2089210510253906,0
0.4643102645874023,0.2154235839843750,0
0.4645265579223632,0.2119623184204102,0
0.4531545639038086,0.2367788314819336,0
0.4682767868041992,0.2019756317138672,0
0.4745309829711914,0.2092546463012695,0
0.4438676834106445,0.2220302581787109,0
0.4644029617309570,0.2208435058593750,0
0.4645826339721679,0.2155054092407226,0
0.4677045822143555,0.1987209320068359,0
0.4541856765747070,0.2380428314208984,0
0.4616792678833008,0.2270645141601562,0
0.4760416030883789,0.2105895996093750,0
0.4536123275756836,0.2122278213500977,0
0.4658735275268555,0.2219896316528320,0
0.4471990585327149,0.2219896316528320,0
0.4696174621582031,0.2000501632690430,0
0.4913623809814453,0.2140422821044922,0
0.4747713088989258,0.2240135192871094,0
0.4714948654174804,0.2123811721801758,0
0.4618085861206054,0.2078287124633789,0
0.4538692474365234,0.2236255645751953,0
0.4486862182617187,0.2124813079833984,0
0.4721569061279297,0.2259658813476562,0
0.4693307876586914,0.2266731262207031,0
0.4766424179077148,0.2110651016235351,0
0.4535018920898437,0.2259469985961914,0
0.4709936141967773,0.2156919479370117,0
0.4640796661376953,0.2272665023803711,0
0.4513669967651367,0.2140451431274414,0
0.4699996948242187,0.2226562500000000,0
0.4720287322998047,0.2277826309204102,0
0.4720287322998047,0.2176305770874023,0
0.4791372299194336,0.2279193878173828,0
0.4761566162109375,0.2165388107299805,0
0.4664537429809570,0.2291782379150391,0
0.4724224090576172,0.2291782379150391,0
0.4899421691894531,0.2157445907592773,0
0.4755380630493164,0.2287422180175781,0
0.4727897644042969,0.2279285430908203,0
0.4773530960083008,0.2105146408081055,0
0.4522951126098633,0.2257879257202148,0
0.4659496307373047,0.2124086380004883,0
0.4591020584106445,0.2222860336303711,0
0.4422815322875976,0.2055473327636719,0
0.4587015151977539,0.1919454574584961,0
0.4407972335815429,0.2164827346801758,0
0.4506105422973632,0.2191978454589844,0
0.4619424819946289,0.2132600784301758,0
0.4412469863891602,0.2013553619384766,0
0.4468940734863281,0.1951000213623047,0
0.4332281112670898,0.2257055282592773,0
0.4332281112670898,0.1983381271362305,0
0.4550382614135742,0.2117259979248047,0
0.4529514312744141,0.2113815307617188,0
0.4598785400390625,0.2119039535522461,0
0.4569173812866211,0.2119039535522461,0
0.4544088363647460,0.2017976760864258,0
0.4536798477172851,0.2119228363037109,0
0.4353996276855469,0.2004610061645508,0
0.4581911087036132,0.2145647048950195,0
0.4452415466308594,0.2314556121826172,0
0.4530790328979492,0.2203817367553711,0
0.4615058898925781,0.2052486419677734,0
0.4387149810791016,0.2179143905639648,0
0.4586803436279296,0.2162229537963867,0
0.4586162567138672,0.2137836456298828,0
0.4617038726806640,0.2184808731079101,0
0.4617038726806640,0.2087636947631836,0
0.4855882644653320,0.2244913101196289,0
0.4688083648681640,0.2048847198486328,0
0.4688083648681640,0.2197299957275391,0
0.4507444381713867,0.2098365783691406,0
0.4643491744995117,0.2098365783691406,0
0.4632007598876953,0.2200458526611328,0
0.4485557556152344,0.2200458526611328,0
0.4628940582275390,0.2145658493041992,0
0.4492921829223633,0.2145658493041992,0
0.4663936614990234,0.2124103546142578,0
0.4901098251342773,0.2124103546142578,0
0.4729745864868164,0.2233749389648438,0
0.4503862380981445,0.2233749389648438,0
0.4546388626098632,0.2129505157470703,0
0.4680862426757812,0.2129505157470703,0
0.4663421630859375,0.2223541259765625,0
0.4512971878051757,0.2223541259765625,0
0.4651199340820312,0.2160272598266602,0
0.4509830474853516,0.2160272598266602,0
0.4674734115600586,0.2131582260131836,0
0.4906774520874023,0.2131582260131836,0
0.4729665756225586,0.2233554840087890,0
0.4500228881835937,0.2233554840087890,0
0.4540340423583984,0.2122312545776367,0
0.4671541213989258,0.2122312545776367,0
0.4651754379272461,0.2212491989135742,0
0.4500062942504883,0.2212491989135742,0
0.4632448196411132,0.2146087646484375,0
0.4490707397460937,0.2146087646484375,0
0.4657573699951172,0.2114404678344727,0
0.4888526916503906,0.2114404678344727,0
0.4711561203002930,0.2219186782836914,0
0.4482759475708007,0.2219186782836914,0
0.4524181365966797,0.2109535217285156,0
0.4658260345458984,0.2109535217285156,0
0.4638216018676757,0.2203748703002930,0
0.4487188339233398,0.2203748703002930,0
0.4623996734619140,0.2138397216796875,0
0.4485815048217773,0.2138397216796875,0
0.4655416488647461,0.2112934112548828,0
0.4534149169921875,0.2112934112548828,0
0.4714502334594726,0.2222236633300781,0
0.4488281250000000,0.2222236633300781,0
0.4532209396362304,0.2116859436035156,0
0.4668130874633789,0.2116859436035156,0
0.4649499893188476,0.2213241577148437,0
0.4501264572143555,0.2213241577148437,0
0.4636608123779297,0.2150957107543945,0
0.4499696731567382,0.2150957107543945,0
0.4671352386474609,0.2127044677734375,0
0.4906517028808594,0.2127044677734375,0
0.4731565475463867,0.2239500045776367,0
0.4506259918212890,0.2239500045776367,0
0.4552883148193359,0.2134838104248047,0
0.4690177917480469,0.2134838104248047,0
0.4669532775878906,0.2231002807617188,0
0.4488590240478516,0.2231002807617188,0
0.4656778335571289,0.2167963027954102,0
0.4520256042480468,0.2167963027954102,0
0.4692192077636719,0.2144342422485352,0
0.4926744461059570,0.2144342422485352,0
0.4753200531005859,0.2258571624755859,0
0.4528266906738281,0.2258571624755859,0
0.4574346542358398,0.2152364730834961,0
0.4712848663330078,0.2152364730834961,0
0.4510276794433594,0.2132972717285156,0
0.4677526473999023,0.2132972717285156,0
0.4714593887329102,0.2254337310791016,0
0.4714593887329102,0.2162538528442383,0
0.4773445129394531,0.2323802947998047,0
0.4751489639282226,0.2181381225585937,0
0.4809436798095703,0.2181381225585937,0
0.4664159774780273,0.2295604705810547,0
0.4517560958862304,0.2295604705810547,0
0.4533044815063476,0.2153137207031250,0
0.4891033172607422,0.2153137207031250,0
0.4752525329589843,0.2288646697998047,0
0.4565872192382812,0.2288646697998047,0
0.4617971420288086,0.2344699859619140,0
0.4690813064575195,0.2344699859619140,0
0.4770412445068359,0.2199886322021484,0
0.4823810577392578,0.2199886322021484,0
0.4673469543457031,0.2299913406372070,0
0.4710210800170898,0.2299913406372070,0
0.4516490936279297,0.2130786895751953,0
0.4855144500732422,0.2130786895751953,0
0.4694955825805664,0.2232381820678711,0
0.4486656188964844,0.2232381820678711,0
0.4520307540893554,0.2253335952758789,0
0.4572875976562500,0.2253335952758789,0
0.4591472625732422,0.2056463241577148,0
0.4520107269287109,0.2056463241577148,0
0.4390937805175781,0.2128332138061523,0
0.4361085891723633,0.2001783370971680,0
0.4364627838134765,0.2121231079101562,0
0.4540918350219726,0.2169370651245117,0
0.4585126876831054,0.2121150970458984,0
0.4547584533691406,0.2010189056396484,0
0.4475835800170898,0.2135839462280273,0
0.4342575073242188,0.1989149093627930,0
0.4374813079833984,0.2125579833984375,0
0.4786153793334961,0.1999757766723633,0
0.4390102386474609,0.2144348144531250,0
0.4587392807006836,0.2040933609008789,0
0.4369789123535156,0.2028745651245117,0
0.4549547195434570,0.2125991821289062,0
0.4602058410644531,0.2150510787963867,0
0.4659090042114258,0.2190135955810547,0
0.4643320083618164,0.2084993362426758,0
0.4566793441772461,0.2214500427246094,0
0.4437137603759765,0.2069326400756836,0
0.4596267700195312,0.2207765579223633,0
0.4527065277099609,0.2228828430175781,0
0.4687997817993164,0.2035480499267578,0
0.4653522491455078,0.2036504745483398,0
0.4633981704711914,0.2199005126953125,0
0.4502832412719726,0.2236564636230469,0
0.4680644989013671,0.2212091445922852,0
0.4680644989013671,0.2126661300659180,0
0.4725185394287109,0.2292531967163086,0
0.4706691741943359,0.2160427093505859,0
0.4757749557495117,0.2160427093505859,0
0.4620586395263672,0.2259281158447266,0
0.4466960906982422,0.2259281158447266,0
0.4477878570556640,0.2101135253906250,0
0.4829269409179687,0.2101135253906250,0
0.4684295654296875,0.2226705551147461,0
0.4491966247558594,0.2226705551147461,0
0.4542011260986328,0.2279045104980469,0
0.4610332489013672,0.2279045104980469,0
0.4688083648681640,0.2146299362182617,0
0.4738471984863281,0.2146299362182617,0
0.4603420257568359,0.2244272232055664,0
0.4448312759399414,0.2244272232055664,0
0.4459545135498047,0.2086000442504883,0
0.4811691284179687,0.2086000442504883,0
0.4666276931762695,0.2213281631469727,0
0.4476110458374024,0.2213281631469727,0
0.4530544281005859,0.2269151687622070,0
0.4601148605346679,0.2269151687622070,0
0.4680250167846680,0.2143421173095703,0
0.4731084823608398,0.2143421173095703,0
0.4600433349609375,0.2243419647216797,0
0.4449068069458008,0.2243419647216797,0
0.4462045669555664,0.2087991714477539,0
0.4815690994262695,0.2087991714477539,0
0.4673023223876953,0.2219255447387695,0
0.4483715057373047,0.2219255447387695,0
0.4540506362915039,0.2279909133911133,0
0.4612724304199218,0.2279909133911133,0
0.4693777084350585,0.2159460067749023,0
0.4745916366577148,0.2159460067749023,0
0.4655302047729492,0.2225280761718750,0
0.4502975463867187,0.2225280761718750,0
0.4628648757934570,0.2150831222534180,0
0.4500875473022461,0.2150831222534180,0
0.4684192657470703,0.2126489639282227,0
0.4915575027465820,0.2126489639282227,0
0.4726100921630859,0.2259881973266601,0
0.4511787414550781,0.2259881973266601,0
0.4568086624145508,0.2143409729003906,0
0.4639972686767578,0.2143409729003906,0
0.4674997329711914,0.2243825912475586,0
0.4522710800170898,0.2243825912475586,0
0.4646930694580078,0.2167173385620117,0
0.4520175933837891,0.2167173385620117,0
0.4705856323242187,0.2141773223876953,0
0.4936626434326172,0.2141773223876953,0
0.4745836257934570,0.2277162551879883,0
0.4532163619995117,0.2277162551879883,0
0.4588806152343750,0.2160318374633789,0
0.4737733840942382,0.2160318374633789,0
0.4695133209228515,0.2260654449462891,0
0.4541839599609375,0.2260654449462891,0
0.4665344238281250,0.2184116363525390,0
0.4732801437377929,0.2184116363525390,0
0.4725219726562500,0.2158458709716797,0
0.4955984115600586,0.2158458709716797,0
0.4764701843261718,0.2296056747436523,0
0.4551658630371094,0.2296056747436523,0
0.4760181427001953,0.2178932189941406,0
0.4683168411254883,0.2155586242675781,0
0.4715864181518554,0.2279005050659180,0
0.4542737960815429,0.2279005050659180,0
0.4684038162231445,0.2201362609863281,0
0.4556064605712891,0.2201362609863281,0
0.4740875244140625,0.2168334960937500,0
0.4609548568725585,0.2168334960937500,0
0.4766195297241211,0.2293699264526367,0
0.4539087295532226,0.2293699264526367,0
0.4581436157226562,0.2147048950195312,0
0.4714553833007812,0.2147048950195312,0
0.4648927688598632,0.2215175628662109,0
0.4473724365234375,0.2215175628662109,0
0.4575456619262695,0.2102491378784180,0
0.4431049346923828,0.2102491378784180,0
0.4602184295654297,0.2046564102172851,0
0.4816417694091797,0.2046564102172851,0
0.4609823226928711,0.2163528442382812,0
0.4383796691894531,0.2163528442382812,0
0.4432451248168945,0.2024436950683594,0
0.4575736999511719,0.2024436950683594,0
0.4520856857299804,0.2112098693847656,0
0.4359380722045899,0.2112098693847656,0
0.4476825714111328,0.2024225234985352,0
0.4347890853881836,0.2024225234985352,0
0.4535264968872070,0.1992284774780273,0
0.4763809204101562,0.1992284774780273,0
0.4570335388183593,0.2134037017822266,0
0.4358545303344726,0.2134037017822266,0
0.4418598175048828,0.2014875411987305,0
0.4574312210083007,0.2014875411987305,0
0.4525045394897461,0.2118564605712891,0
0.4371419906616211,0.2118564605712891,0
0.4495954513549805,0.2042901992797851,0
0.4372964859008789,0.2042901992797851,0
0.4565643310546875,0.2019441604614258,0
0.4799108505249023,0.2019441604614258,0
0.4608650207519531,0.2170452117919922,0
0.4401117324829101,0.2170452117919922,0
0.4465112686157227,0.2054946899414062,0
0.4624608993530273,0.2054946899414062,0
0.4575502395629882,0.2162578582763672,0
0.4422609329223633,0.2162578582763672,0
0.4545879364013672,0.2086315155029297,0
0.4423170089721680,0.2086315155029297,0
0.4616506576538086,0.2061584472656250,0
0.4849765777587891,0.2061584472656250,0
0.4655885696411133,0.2213470458984375,0
0.4447734832763672,0.2213470458984375,0
0.4514213562011719,0.2094778060913086,0
0.4672834396362304,0.2094778060913086,0
0.4620918273925781,0.2202861785888672,0
0.4466068267822266,0.2202861785888672,0
0.4588600158691406,0.2124572753906250,0
0.4467212677001953,0.2124572753906250,0
0.4659673690795898,0.2097158432006836,0
0.4892503738403320,0.2097158432006836,0
0.4697261810302734,0.2250755310058594,0
0.4488939285278320,0.2250755310058594,0
0.4554153442382812,0.2127994537353516,0
0.4711858749389648,0.2127994537353516,0
0.4656211853027343,0.2231288909912109,0
0.4497144699096680,0.2231288909912109,0
0.4614377975463867,0.2144880294799805,0
0.4489076614379883,0.2144880294799805,0
0.4677337646484375,0.2109226226806641,0
0.4904720306396484,0.2109226226806641,0
0.4705701828002929,0.2256317138671875,0
0.4493413925170898,0.2256317138671875,0
0.4554874420166015,0.2125511169433594,0
0.4709283828735351,0.2125511169433594,0
0.4648527145385742,0.2222929000854492,0
0.4486095428466797,0.2222929000854492,0
0.4600193023681640,0.2132743835449219,0
0.4474222183227539,0.2132743835449219,0
0.4661407470703125,0.2093101501464844,0
0.4887571334838867,0.2093101501464844,0
0.4686201095581055,0.2241828918457031,0
0.4475011825561523,0.2241828918457031,0
0.4538795471191406,0.2111921310424805,0
0.4696620941162109,0.2111921310424805,0
0.4634714126586914,0.2211656570434570,0
0.4474822998046875,0.2211656570434570,0
0.4589223861694336,0.2125087738037109,0
0.4465398788452148,0.2125087738037109,0
0.4656629562377930,0.2089199066162109,0
0.4884698867797851,0.2089199066162109,0
0.4685920715332031,0.2242544174194336,0
0.4477443695068359,0.2242544174194336,0
0.4545312881469726,0.2116744995117187,0
0.4704545974731445,0.2116744995117187,0
0.4642467498779297,0.2221160888671875,0
0.4484590530395507,0.2221160888671875,0
0.4598796844482422,0.2136205673217773,0
0.4478021621704101,0.2136205673217773,0
0.4670104980468750,0.2102519989013672,0
0.4899873733520508,0.2102519989013672,0
0.4701559066772460,0.2258754730224609,0
0.4495250701904297,0.2258754730224609,0
0.4563915252685546,0.2135112762451172,0
0.4725454330444336,0.2135112762451172,0
0.4662546157836914,0.2239797592163086,0
0.4503799438476562,0.2239797592163086,0
0.4618446350097656,0.2153726577758789,0
0.4497905731201172,0.2153726577758789,0
0.4691001892089843,0.2119892120361328,0
0.4920787811279297,0.2119892120361328,0
0.4720521926879883,0.2276802062988281,0
0.4514436721801758,0.2276802062988281,0
0.4584091186523437,0.2150848388671875,0
0.4747255325317383,0.2150848388671875,0
0.4682201385498047,0.2257535934448242,0
0.4521869659423828,0.2257535934448242,0
0.4637100219726562,0.2170366287231445,0
0.4517578125000000,0.2170366287231445,0
0.4710010528564453,0.2136337280273437,0
0.4940145492553711,0.2136337280273437,0
0.4738431930541992,0.2295627593994141,0
0.4534091949462891,0.2295627593994141,0
0.4605714797973632,0.2170326232910156,0
0.4770572662353516,0.2170326232910156,0
0.4704328536987304,0.2278020858764648,0
0.4543155670166015,0.2278020858764648,0
0.4657110214233398,0.2188957214355469,0
0.4538732528686523,0.2188957214355469,0
0.4731325149536132,0.2152164459228516,0
0.4959915161132812,0.2152164459228516,0
0.4758052825927734,0.2312896728515625,0
0.4554536819458008,0.2312896728515625,0
0.4627864837646484,0.2188093185424805,0
0.4794170379638671,0.2188093185424805,0
0.4724990844726562,0.2295776367187500,0
0.4562879562377929,0.2295776367187500,0
0.4672668457031250,0.2202449798583984,0
0.4549587249755859,0.2202449798583984,0
0.4735822677612305,0.2150224685668945,0
0.4951812744140625,0.2150224685668945,0
0.4733276367187500,0.2286661148071289,0
0.4510705947875976,0.2286661148071289,0
0.4566679000854492,0.2128383636474609,0
0.4712562561035156,0.2128383636474609,0
0.4620380401611328,0.2202157974243164,0
0.4438264846801758,0.2202157974243164,0
0.4532970428466797,0.2080787658691406,0
0.4399503707885742,0.2080787658691406,0
0.4576835632324219,0.2016752243041992,0
0.4790708541870117,0.2016752243041992,0
0.4577436447143555,0.2159563064575195,0
0.4364753723144531,0.2159563064575195,0
0.4433544158935547,0.2019006729125976,0
0.4595232009887695,0.2019006729125976,0
0.4517068862915039,0.2120298385620117,0
0.4350545883178711,0.2120298385620117,0
0.4459144592285156,0.2024597167968750,0
0.4341596603393554,0.2024597167968750,0
0.4534143447875976,0.1981710433959961,0
0.4762304306030273,0.1981710433959961,0
0.4557792663574218,0.2146923065185547,0
0.4358413696289062,0.2146923065185547,0
0.4436759948730469,0.2024642944335937,0
0.4608180999755859,0.2024642944335937,0
0.4372066497802734,0.2011556625366211,0
0.4372066497802734,0.2011556625366211,0
0.4578140258789062,0.2143312454223633,0
0.4384489059448242,0.2143312454223633,0
0.4459138870239258,0.2219301223754883,0
0.4533319473266602,0.2219301223754883,0
0.4615098953247070,0.2150436401367188,0
0.4658512115478515,0.2150436401367188,0
0.4586128234863281,0.2234893798828125,0
0.4420978546142578,0.2234893798828125,0
0.4427753448486328,0.2058815002441406,0
0.4785844802856445,0.2058815002441406,0
0.4630468368530273,0.2187206268310547,0
0.4437177658081055,0.2187206268310547,0
0.4509006500244140,0.2260768890380859,0
0.4581785202026367,0.2260768890380859,0
0.4662546157836914,0.2196098327636719,0
0.4704517364501953,0.2196098327636719,0
0.4632431030273437,0.2273174285888672,0
0.4467298507690430,0.2273174285888672,0
0.4470949172973633,0.2097690582275391,0
0.4829143524169922,0.2097690582275391,0
0.4673292160034179,0.2224611282348633,0
0.4479389190673828,0.2224611282348633,0
0.4551263809204101,0.2297132492065430,0
0.4621765136718750,0.2297132492065430,0
0.4700334548950195,0.2232450485229492,0
0.4739433288574219,0.2232450485229492,0
0.4667306900024414,0.2301767349243164,0
0.4497488021850586,0.2301767349243164,0
0.4495777130126953,0.2117385864257812,0
0.4849325180053711,0.2117385864257812,0
0.4687992095947265,0.2235477447509766,0
0.4487245559692383,0.2235477447509766,0
0.4555795669555664,0.2298254013061523,0
0.4621599197387695,0.2298254013061523,0
0.4694635391235351,0.2226751327514648,0
0.4728635787963867,0.2226751327514648,0
0.4655782699584960,0.2290723800659180,0
0.4481191635131836,0.2290723800659180,0
0.4477106094360351,0.2098571777343750,0
0.4831678390502929,0.2098571777343750,0
0.4666213989257812,0.2215885162353516,0
0.4464992523193359,0.2215885162353516,0
0.4533903121948242,0.2279417037963867,0
0.4597372055053711,0.2279417037963867,0
0.4672937393188477,0.2209894180297851,0
0.4708253860473632,0.2209894180297851,0
0.4640699386596679,0.2278861999511719,0
0.4467590332031250,0.2278861999511719,0
0.4466205596923828,0.2091281890869141,0
0.4821475982666015,0.2091281890869141,0
0.4658901214599609,0.2211868286132812,0
0.4461004257202149,0.2211868286132812,0
0.4533205032348633,0.2278409957885742,0
0.4602230072021484,0.2278409957885742,0
0.4676118850708008,0.2215072631835937,0
0.4714725494384766,0.2215072631835937,0
0.4649946212768554,0.2288211822509766,0
0.4476980209350586,0.2288211822509766,0
0.4477443695068359,0.2103384017944336,0
0.4584640502929687,0.2210878372192383,0
0.4660995483398437,0.2151363372802734,0
0.4622303009033203,0.2295593261718750,0
0.4687997817993164,0.2265798568725586,0
0.4576910018920898,0.2140937805175781,0
0.4673789978027343,0.2309154510498047,0
0.4496721267700195,0.2121105194091797,0
0.4605297088623047,0.2121105194091797,0
0.4495931625366211,0.2245885848999023,0
0.4571331024169922,0.2315998077392578,0
0.4708505630493164,0.2285493850708008,0
0.4599437713623047,0.2161874771118164,0
0.4699476242065430,0.2184396743774414,0
0.4522298812866211,0.2380245208740234,0
0.4519718170166016,0.2182422637939453,0
0.4720252990722656,0.2268350601196289,0
0.4598482131958008,0.2337112426757812,0
0.4731611251831054,0.2125505447387695,0
0.4782548904418945,0.2276830673217773,0
0.4548969268798828,0.2353397369384765,0
0.4714662551879882,0.2299238204956054,0
0.4652246475219726,0.2202707290649414,0
0.4721900939941406,0.2143644332885742,0
0.4619653701782226,0.2143644332885742,0
0.4556625366210937,0.2328351974487305,0
0.4648853302001953,0.2201883316040039,0
0.4749183654785156,0.2371370315551758,0
0.4560762405395508,0.2407562255859375,0
0.4531986236572265,0.2202140808105469,0
0.4732549667358398,0.2272602081298828,0
0.4572389602661133,0.2305967330932617,0
0.4681932449340820,0.2061046600341797,0
0.4689331054687500,0.2214855194091797,0
0.4588497161865234,0.2257707595825195,0
0.4588497161865234,0.2187801361083984,0
0.4491216659545899,0.2065429687500000,0
0.4535682678222656,0.2041042327880859,0
0.4747323989868164,0.1981664657592773,0
0.4549404144287109,0.2153709411621094,0
0.4438453674316406,0.2018411636352539,0
0.4535911560058594,0.2191566467285156,0
0.4352663040161133,0.2229972839355469,0
0.4344623565673828,0.2034891128540039,0
0.4542634963989258,0.2118822097778320,0
0.4423484802246094,0.2184900283813477,0
0.4571760177612305,0.1983484268188477,0
0.4608724594116211,0.2139049530029297,0
0.4389884948730469,0.2219758987426758,0
0.4551858901977539,0.2166137695312500,0
0.4492286682128906,0.2073698043823242,0
0.4587615966796875,0.1934698104858398,0
0.4475749969482422,0.2356470108032226,0
0.4551280975341797,0.2229194641113281,0
0.4662134170532226,0.2184242248535156,0
0.4515523910522461,0.2086566925048828,0
0.4606504440307617,0.2213624954223633,0
0.4448913574218750,0.2310487747192383,0
0.4637935638427734,0.2203439712524414,0
0.4441417694091797,0.2203439712524414,0
0.4595924377441406,0.2268922805786133,0
0.4649860382080078,0.2247585296630859,0
0.4559400558471680,0.2124292373657226,0
0.4666728973388672,0.2163860321044922,0
0.4494541168212891,0.2345575332641602,0
0.4853118896484375,0.2112642288208008,0
0.4479257583618164,0.2237119674682617,0
0.4655256271362305,0.2081296920776367,0
0.4680044174194335,0.2274724960327148,0
0.4699453353881836,0.2090812683105469,0
0.4688713073730468,0.2180454254150390,0
0.4501590728759766,0.2261793136596680,0
0.4507947921752929,0.2119594573974609,0
0.4676982879638671,0.2234933853149414,0
0.4649265289306641,0.2128932952880859,0
0.4665115356445312,0.2116813659667969,0
0.4471555709838867,0.2263875961303711,0
0.4758121490478515,0.2128572463989258,0
0.4671535491943359,0.2306179046630859,0
0.4493471145629883,0.2102056503295898,0
0.4569671630859375,0.2208641052246094,0
0.4631475448608398,0.2111795425415039,0
0.4843093872070312,0.2054489135742187,0
0.4457759857177734,0.2251705169677734,0
0.4672605514526367,0.2225263595581055,0
0.4665538787841796,0.2301166534423828,0
0.4640939712524414,0.2057682037353516,0
0.4569866180419921,0.2210924148559570,0
0.4467247009277344,0.2141670227050781,0
0.4540391921997070,0.2410835266113281,0
0.4607110977172851,0.2260997772216797,0
0.4682722091674805,0.2236948013305664,0
0.4680936813354492,0.2315511703491211,0
0.4656063079833984,0.2072027206420898,0
0.4585350036621094,0.2157600402832031,0
0.4678030014038086,0.2016345977783203,0
0.4558095932006836,0.2426822662353516,0
0.4624958038330078,0.2294952392578125,0
0.4729940414428710,0.2254285812377930,0
0.4591352462768554,0.2149772644042969,0
0.4675409317016601,0.2089473724365234,0
0.4604318618774414,0.2133790969848633,0
0.4504400253295898,0.2175859451293945,0
0.4884006500244140,0.2086738586425781,0
0.4577350616455078,0.2309692382812500,0
0.4719451904296875,0.2111097335815430,0
0.4747587203979492,0.2166172027587891,0
0.4721179962158203,0.2350610733032227,0
0.4555738449096680,0.2148839950561523,0
0.4622257232666016,0.2258817672729492,0
0.4692661285400390,0.2101747512817383,0
0.4595918655395508,0.2101747512817383,0
0.4738918304443359,0.2129951477050781,0
0.4738918304443359,0.2285762786865234,0
0.4557037353515625,0.2369510650634765,0
0.4716665267944335,0.2314167022705078,0
0.4645236968994140,0.2213069915771484,0
0.4738912582397461,0.2073308944702148,0
0.4616798400878906,0.2476552963256836,0
0.4616798400878906,0.2341186523437500,0
0.4750162124633789,0.2290431976318359,0
0.4631429672241211,0.2537979125976562,0
0.4684026718139648,0.2279022216796875,0
0.4531780242919922,0.2279022216796875,0
0.4645059585571289,0.1987735748291015,0
0.4424543380737305,0.2205213546752930,0
0.4540575027465820,0.2226814270019531,0
0.4579216003417969,0.2201465606689453,0
0.4477678298950195,0.2404689788818359,0
0.4381834030151367,0.2227363586425781,0
0.4541067123413086,0.2162281036376953,0
0.4452421188354492,0.2049465179443359,0
0.4539310455322265,0.1906660079956055,0
0.4413917541503906,0.2168432235717773,0
0.4482765197753906,0.2168432235717773,0
0.4446252822875976,0.2122501373291016,0
0.4446252822875976,0.2026479721069336,0
0.4372472763061523,0.2161176681518555,0
0.4407279968261719,0.2016265869140625,0
0.4546892166137695,0.2019498825073242,0
0.4752914428710937,0.1966724395751953,0
0.4554925918579101,0.2190267562866211,0
0.4491960525512695,0.2414840698242187,0
0.4613519668579101,0.2066648483276367,0
0.4461542129516601,0.2205070495605469,0
0.4461542129516601,0.2061864852905273,0
0.4614183425903320,0.2189723968505859,0
0.4501670837402343,0.2241725921630859,0
0.4606201171875000,0.2241725921630859,0
0.4541753768920898,0.2109397888183594,0
0.4662540435791016,0.2168151855468750,0
0.4472087860107422,0.2245845794677734,0
0.4474147796630859,0.2153846740722656,0
0.4658786773681640,0.2017433166503906,0
0.4658786773681640,0.2049407958984375,0
0.4544391632080078,0.2049407958984375,0
0.4646913528442382,0.2270633697509765,0
0.4469266891479492,0.2270633697509765,0
0.4583393096923828,0.2145183563232422,0
0.4799148559570312,0.2145183563232422,0
0.4672445297241211,0.2279182434082031,0
0.4598613739013672,0.2182697296142578,0
0.4504182815551758,0.2182697296142578,0
0.4678030014038086,0.2068485260009766,0
0.4873958587646484,0.2068485260009766,0
0.4660898208618164,0.2282764434814453,0
0.4477930068969727,0.2282764434814453,0
0.4588731765747070,0.2146522521972656,0
0.4800327301025391,0.2146522521972656,0
0.4667078018188476,0.2275926589965820,0
0.4499656677246094,0.2275926589965820,0
0.4582426071166992,0.2169622421264648,0
0.4487302780151367,0.2169622421264648,0
0.4659828186035156,0.2050203323364258,0
0.4852003097534179,0.2050203323364258,0
0.4635921478271484,0.2263246536254883,0
0.4453359603881836,0.2263246536254883,0
0.4564384460449218,0.2125923156738281,0
0.4779190063476562,0.2125923156738281,0
0.4645889282226562,0.2256483078002930,0
0.4864007949829101,0.2105958938598633,0
0.4470989227294922,0.2041133880615234,0
0.4841995239257812,0.2041133880615234,0
0.4629341125488281,0.2257352828979492,0
0.4449640274047851,0.2257352828979492,0
0.4563800811767578,0.2125997543334961,0
0.4782377243041992,0.2125997543334961,0
0.4650381088256836,0.2262102127075195,0
0.4485683441162109,0.2262102127075195,0
0.4573619842529297,0.2164501190185547,0
0.4483406066894531,0.2164501190185547,0
0.4657012939453125,0.2051994323730469,0
0.4851282119750976,0.2051994323730469,0
0.4640939712524414,0.2271795272827148,0
0.4463361740112304,0.2271795272827148,0
0.4578769683837891,0.2140291213989258,0
0.4800344467163086,0.2140291213989258,0
0.4667575836181641,0.2279331207275390,0
0.4502809524536133,0.2279331207275390,0
0.4588319778442382,0.2181529998779297,0
0.4500612258911132,0.2181529998779297,0
0.4676313400268555,0.2069812774658203,0
0.4868865966796875,0.2069812774658203,0
0.4657373428344727,0.2288726806640625,0
0.4479795455932617,0.2288726806640625,0
0.4595970153808593,0.2155803680419922,0
0.4818998336791992,0.2155803680419922,0
0.4685171127319336,0.2295650482177734,0
0.4518333435058594,0.2295650482177734,0
0.4605514526367187,0.2198003768920898,0
0.4519128799438477,0.2198003768920898,0
0.4694726943969726,0.2087282180786133,0
0.4887142181396484,0.2087282180786133,0
0.4675889968872070,0.2304296493530273,0
0.4497877120971679,0.2304296493530273,0
0.4614377975463867,0.2172140121459961,0
0.4839878082275391,0.2172140121459961,0
0.4705902099609375,0.2312719345092773,0
0.4534944534301757,0.2312719345092773,0
0.4626457214355468,0.2217910766601562,0
0.4540901184082031,0.2217910766601562,0
0.4717620849609375,0.2109523773193359,0
0.4909103393554687,0.2109523773193359,0
0.4696912765502930,0.2323333740234375,0
0.4519145965576172,0.2323333740234375,0
0.4634902954101562,0.2187961578369141,0
0.4858251571655273,0.2187961578369141,0
0.4715795516967773,0.2317462921142578,0
0.4530721664428711,0.2317462921142578,0
0.4611454010009766,0.2199771881103516,0
0.4508743286132812,0.2199771881103516,0
0.4665790557861328,0.2058689117431640,0
0.4835357666015625,0.2058689117431640,0
0.4603734970092773,0.2236742019653320,0
0.4405506134033203,0.2236742019653320,0
0.4507329940795898,0.2075597763061523,0
0.4719652175903320,0.2075597763061523,0
0.4568389892578125,0.2191114425659180,0
0.4377353668212891,0.2191114425659180,0
0.4462778091430664,0.2076438903808594,0
0.4546211242675781,0.2076438903808594,0
0.4533256530761718,0.1952138900756836,0
0.4714828491210937,0.1952138900756836,0
0.4500217437744141,0.2155162811279297,0
0.4317724227905274,0.2155162811279297,0
0.4434877395629883,0.2017919540405273,0
0.4663158416748047,0.2017919540405273,0
0.4524089813232421,0.2158195495605469,0
0.4345441818237304,0.2158195495605469,0
0.4442098617553711,0.2063106536865234,0
0.4360754013061524,0.2063106536865234,0
0.4534183502197265,0.1956104278564453,0
0.4722433090209961,0.1956104278564453,0
0.4518836975097656,0.2171350479125977,0
0.4342311859130859,0.2171350479125977,0
0.4463459014892578,0.2044338226318359,0
0.4697416305541992,0.2044338226318359,0
0.4561391830444336,0.2192373275756836,0
0.4385004043579102,0.2192373275756836,0
0.4485157012939453,0.2102771759033203,0
0.4406518936157227,0.2102771759033203,0
0.4581527709960938,0.1997938156127930,0
0.4770023345947265,0.1997938156127930,0
0.4564453125000000,0.2213768005371094,0
0.4389335632324219,0.2213768005371094,0
0.4512742996215820,0.2085256576538086,0
0.4747821807861328,0.2085256576538086,0
0.4608432769775390,0.2232725143432617,0
0.4430711746215820,0.2232725143432617,0
0.4530355453491210,0.2139902114868164,0
0.4450944900512695,0.2139902114868164,0
0.4623756408691406,0.2034633636474609,0
0.4809019088745117,0.2034633636474609,0
0.4603780746459961,0.2249015808105469,0
0.4659175872802734,0.2249015808105469,0
0.4550582885742187,0.2119920730590820,0
0.4788602828979492,0.2119920730590820,0
0.4648389816284180,0.2267864227294922,0
0.4469970703125000,0.2267864227294922,0
0.4569660186767578,0.2174926757812500,0
0.4490289688110352,0.2174926757812500,0
0.4661464691162109,0.2067667007446289,0
0.4843677520751953,0.2067667007446289,0
0.4634662628173828,0.2275468826293945,0
0.4456815719604492,0.2275468826293945,0
0.4576412200927734,0.2138895034790039,0
0.4810031890869140,0.2138895034790039,0
0.4662672042846679,0.2279027938842773,0
0.4476682662963867,0.2279027938842773,0
0.4572624206542968,0.2175304412841797,0
0.4488372802734375,0.2175304412841797,0
0.4654586791992187,0.2061864852905273,0
0.4831821441650390,0.2061864852905273,0
0.4620214462280273,0.2262720108032227,0
0.4439695358276367,0.2262720108032227,0
0.4556081771850586,0.2123245239257812,0
0.4790096282958984,0.2123245239257812,0
0.4642724990844727,0.2261306762695312,0
0.4457130432128906,0.2261306762695312,0
0.4552499771118164,0.2157314300537109,0
0.4469570159912109,0.2157314300537109,0
0.4637037277221679,0.2046392440795898,0
0.4815690994262695,0.2046392440795898,0
0.4604209899902343,0.2250154495239258,0
0.4427324295043945,0.2250154495239258,0
0.4548282623291016,0.2114639282226562,0
0.4785123825073242,0.2114639282226562,0
0.4638816833496093,0.2257902145385742,0
0.4455368041992188,0.2257902145385742,0
0.4552225112915039,0.2158813476562500,0
0.4473249435424805,0.2158813476562500,0
0.4641557693481445,0.2053030014038086,0
0.4820360183715820,0.2053030014038086,0
0.4612117767333984,0.2260265350341797,0
0.4437755584716797,0.2260265350341797,0
0.4560401916503906,0.2127891540527344,0
0.4801465988159179,0.2127891540527344,0
0.4654872894287109,0.2273923873901367,0
0.4472116470336914,0.2273923873901367,0
0.4569276809692382,0.2174800872802734,0
0.4667839050292968,0.2174800872802734,0
0.4660148620605469,0.2072490692138672,0
0.4837806701660156,0.2072490692138672,0
0.4629289627075195,0.2277523040771484,0
0.4454441070556641,0.2277523040771484,0
0.4577470779418945,0.2144428253173828,0
0.4821332931518554,0.2144428253173828,0
0.4672948837280273,0.2290122985839844,0
0.4489557266235352,0.2290122985839844,0
0.4585590362548828,0.2191114425659180,0
0.4508852005004882,0.2191114425659180,0
0.4676204681396484,0.2086647033691406,0
0.4852289199829101,0.2086647033691406,0
0.4643972396850586,0.2292531967163086,0
0.4469833374023438,0.2292531967163086,0
0.4593795776367187,0.2158876419067383,0
0.4838562011718750,0.2158876419067383,0
0.4689170837402343,0.2305921554565430,0
0.4504846572875976,0.2305921554565430,0
0.4600198745727539,0.2204835891723633,0
0.4524570465087890,0.2204835891723633,0
0.4692501068115234,0.2102193832397461,0
0.4868127822875976,0.2102193832397461,0
0.4662620544433593,0.2308141708374023,0
0.4488384246826172,0.2308141708374023,0
0.4612987518310547,0.2174108505249023,0
0.4858011245727539,0.2174108505249023,0
0.4706022262573242,0.2317457199096680,0
0.4517189025878906,0.2317457199096680,0
0.4606092453002930,0.2206586837768555,0
0.4696043014526367,0.2206586837768555,0
0.4673761367797851,0.2081445693969727,0
0.4831649780273437,0.2081445693969727,0
0.4607557296752929,0.2256626129150391,0
0.4414443969726562,0.2256626129150391,0
0.4519895553588867,0.2088300704956055,0
0.4645076751708984,0.2088300704956055,0
0.4581018447875976,0.2207513809204102,0
0.4379093170166016,0.2207513809204102,0
0.4459287643432617,0.2081428527832031,0
0.4369674682617187,0.2081428527832031,0
0.4525182723999023,0.1956155776977539,0
0.4400550842285156,0.1956155776977539,0
0.4473363876342774,0.2147832870483398,0
0.4292804718017578,0.2147832870483398,0
0.4413883209228516,0.2005159378051758,0
0.4659696578979492,0.2005159378051758,0
0.4504531860351562,0.2147174835205078,0
0.4314989089965820,0.2147174835205078,0
0.4409179687500000,0.2044086456298828,0
0.4332630157470703,0.2044086456298828,0
0.4498300552368164,0.1935836791992187,0
0.4670888900756835,0.1935836791992187,0
0.4464586257934570,0.2145584106445312,0
0.4292387008666992,0.2145584106445312,0
0.4420406341552734,0.2014188766479492,0
0.4673183441162109,0.2014188766479492,0
0.4521039962768554,0.2166887283325195,0
0.4335708618164062,0.2166887283325195,0
0.4434614181518555,0.2069234848022461,0
0.4362653732299804,0.2069234848022461,0
0.4529817581176758,0.1962089538574219,0
0.4704236984252930,0.1962089538574219,0
0.4498437881469726,0.2179252624511719,0
0.4329986572265625,0.2179252624511719,0
0.4460992813110352,0.2048950195312500,0
0.4715023040771484,0.2048950195312500,0
0.4562067031860351,0.2201488494873047,0
0.4376409530639648,0.2201488494873047,0
0.4473049163818359,0.2102050781250000,0
0.4400121688842774,0.2102050781250000,0
0.4566925048828125,0.1987146377563477,0
0.4738615036010742,0.1987146377563477,0
0.4530481338500976,0.2206661224365234,0
0.4359958648681641,0.2206661224365234,0
0.4490358352661133,0.2072742462158203,0
0.4745538711547851,0.2072742462158203,0
0.4591569900512695,0.2226625442504883,0
0.4405603408813477,0.2226625442504883,0
0.4501642227172851,0.2128978729248047,0
0.4430179595947266,0.2128978729248047,0
0.4596216201782226,0.2013067245483398,0
0.4766767501831055,0.2013067245483398,0
0.4561363220214844,0.2233034133911133,0
0.4389764785766602,0.2233034133911133,0
0.4518899917602539,0.2098314285278320,0
0.4774103164672852,0.2098314285278320,0
0.4616775512695312,0.2249124526977539,0
0.4428714752197265,0.2249124526977539,0
0.4520215988159180,0.2145320892333984,0
0.4447042465209961,0.2145320892333984,0
0.4608592987060547,0.2021730422973633,0
0.4774423599243164,0.2021730422973633,0
0.4563863754272461,0.2235414505004883,0
0.4389221191406250,0.2235414505004883,0
0.4516920089721679,0.2095670700073242,0
0.4769170761108398,0.2095670700073242,0
0.4608158111572265,0.2241434097290039,0
0.4414804458618164,0.2241434097290039,0
0.4504554748535156,0.2133796691894531,0
0.4428480148315430,0.2133796691894531,0
0.4589756011962891,0.2006950378417969,0
0.4754001617431640,0.2006950378417969,0
0.4543893814086914,0.2222986221313477,0
0.4369274139404297,0.2222986221313477,0
0.4499525070190429,0.2084106445312500,0
0.4756479263305664,0.2084106445312500,0
0.4597211837768554,0.2234825134277344,0
0.4406415939331055,0.2234825134277344,0
0.4498512268066406,0.2131965637207031,0
0.4426443099975586,0.2131965637207031,0
0.4591037750244140,0.2009439468383789,0
0.4759975433349609,0.2009439468383789,0
0.4551412582397460,0.2233011245727539,0
0.4380002975463867,0.2233011245727539,0
0.4514179229736328,0.2098497390747070,0
0.4776512145996094,0.2098497390747070,0
0.4620483398437500,0.2255161285400391,0
0.4431953430175781,0.2255161285400391,0
0.4527385711669922,0.2157125473022461,0
0.4458555221557617,0.2157125473022461,0
0.4624151229858398,0.2037677764892578,0
0.4793071746826172,0.2037677764892578,0
0.4585395812988281,0.2262462615966797,0
0.4414598464965820,0.2262462615966797,0
0.4548837661743164,0.2126249313354492,0
0.4812080383300781,0.2126249313354492,0
0.4652669906616211,0.2280899047851562,0
0.4461959838867187,0.2280899047851562,0
0.4555337905883789,0.2179790496826172,0
0.4485563278198242,0.2179790496826172,0
0.4649368286132812,0.2058597564697266,0
0.4816806793212891,0.2058597564697266,0
0.4608449935913086,0.2281299591064453,0
0.4437892913818359,0.2281299591064453,0
0.4571994781494140,0.2147243499755859,0
0.4836833953857422,0.2147243499755859,0
0.4678894042968750,0.2303586959838867,0
0.4488773345947266,0.2303586959838867,0
0.4582952499389648,0.2204292297363281,0
0.4514923095703125,0.2204292297363281,0
0.4676404953002929,0.2083293914794922,0
0.4842424392700195,0.2083293914794922,0
0.4634239196777343,0.2305767059326172,0
0.4464591979980468,0.2305767059326172,0
0.4599426269531250,0.2170211791992187,0
0.4864809036254882,0.2170211791992187,0
0.4705999374389648,0.2324953079223633,0
0.4513011932373047,0.2324953079223633,0
0.4603872299194336,0.2221269607543945,0
0.4531482696533203,0.2221269607543945,0
0.4685543060302734,0.2085348129272461,0
0.4838928222656250,0.2085348129272461,0
0.4614383697509765,0.2284172058105469,0
0.4427083969116211,0.2284172058105469,0
0.4545410156250000,0.2117918014526367,0
0.4791887283325195,0.2117918014526367,0
0.4612918853759765,0.2238653182983398,0
0.4399698257446289,0.2060737609863281,0
0.4476940155029297,0.2174457550048828,0
0.4540014266967773,0.2153503417968750,0
0.4409002304077148,0.2136171340942383,0
0.4483411788940430,0.2136171340942383,0
0.4530269622802734,0.2131765365600586,0
0.4519140243530273,0.2131765365600586,0
0.4568538665771484,0.2193048477172851,0
0.4358751296997070,0.2193048477172851,0
0.4396648406982422,0.1992404937744141,0
0.4742546081542969,0.1992404937744141,0
0.4517320632934570,0.2109163284301758,0
0.4307321548461914,0.2109163284301758,0
0.4379093170166016,0.2113466262817383,0
0.4466405868530273,0.2113466262817383,0
0.4523609161376953,0.2128177642822266,0
0.4519775390625000,0.2128177642822266,0
0.4577951431274414,0.2202295303344727,0
0.4374544143676758,0.2202295303344727,0
0.4420286178588867,0.2013553619384766,0
0.4770143508911133,0.2013553619384766,0
0.4548454284667969,0.2137681961059570,0
0.4342248916625976,0.2137681961059570,0
0.4416017532348633,0.2145755767822266,0
0.4506053924560547,0.2145755767822266,0
0.4564195632934570,0.2166509628295898,0
0.4562009811401367,0.2166509628295898,0
0.4622926712036133,0.2242383956909180,0
0.4419811248779297,0.2242383956909180,0
0.4467973709106445,0.2052366256713867,0
0.4814712524414062,0.2052366256713867,0
0.4591117858886719,0.2173198699951172,0
0.4382560729980469,0.2173198699951172,0
0.4455116271972656,0.2176054000854492,0
0.4544219970703125,0.2176054000854492,0
0.4600112915039062,0.2195583343505859,0
0.4595066070556640,0.2195583343505859,0
0.4655330657958984,0.2270479202270508,0
0.4452907562255859,0.2270479202270508,0
0.4501081466674804,0.2079151153564453,0
0.4847929000854492,0.2079151153564453,0
0.4622451782226562,0.2200069427490234,0
0.4414077758789062,0.2200069427490234,0
0.4486982345581055,0.2203268051147461,0
0.4576503753662109,0.2203268051147461,0
0.4633054733276367,0.2226511001586914,0
0.4628339767456054,0.2226511001586914,0
0.4690784454345703,0.2297613143920898,0
0.4485969543457031,0.2297613143920898,0
0.4530378341674804,0.2105026245117188,0
0.4875148773193359,0.2105026245117188,0
0.4648887634277343,0.2219455718994141,0
0.4436439514160156,0.2219455718994141,0
0.4504154205322266,0.2216073989868164,0
0.4590007781982421,0.2216073989868164,0
0.4642187118530273,0.2233171463012695,0
0.4631721496582031,0.2233171463012695,0
0.4692192077636719,0.2296205520629883,0
0.4484081268310547,0.2296205520629883,0
0.4528043746948242,0.2099550247192383,0
0.4868642807006835,0.2099550247192383,0
0.4640253067016601,0.2211193084716797,0
0.4426860809326172,0.2211193084716797,0
0.4492332458496094,0.2205831527709961,0
0.4578203201293945,0.2205831527709961,0
0.4630325317382812,0.2222425460815430,0
0.4619396209716797,0.2222425460815430,0
0.4681486129760742,0.2286415100097656,0
0.4475400924682617,0.2286415100097656,0
0.4518722534179687,0.2092311859130859,0
0.4862148284912109,0.2092311859130859,0
0.4636104583740234,0.2208143234252930,0
0.4425458908081055,0.2208143234252930,0
0.4493871688842773,0.2205934524536133,0
0.4582609176635742,0.2205934524536133,0
0.4636436462402344,0.2230207443237305,0
0.4626960754394531,0.2230207443237305,0
0.4694160461425781,0.2296136856079102,0
0.4491788864135742,0.2296136856079102,0
0.4538080215454101,0.2107858657836914,0
0.4882604598999023,0.2107858657836914,0
0.4657917022705078,0.2225681304931641,0
0.4447751998901367,0.2225681304931641,0
0.4515192031860351,0.2222883224487305,0
0.4605468750000000,0.2222883224487305,0
0.4658248901367187,0.2249605178833008,0
0.4648704528808594,0.2249605178833008,0
0.4717609405517578,0.2316358566284180,0
0.4514362335205078,0.2316358566284180,0
0.4562501907348633,0.2128097534179687,0
0.4905063629150390,0.2128097534179687,0
0.4680788040161132,0.2245159149169922,0
0.4656188964843750,0.2245159149169922,0
0.4535734176635742,0.2241285324096680,0
0.4626897811889648,0.2241285324096680,0
0.4678722381591797,0.2267898559570312,0
0.4667730331420898,0.2267898559570312,0
0.4737167358398438,0.2333971023559570,0
0.4534864425659180,0.2333971023559570,0
0.4585149765014648,0.2145240783691406,0
0.4581275939941406,0.2209127426147461,0
0.4676399230957031,0.2116676330566406,0
0.4649305343627930,0.2257444381713867,0
0.4619699478149414,0.2301052093505859,0
0.4591604232788086,0.2168272018432617,0
0.4710456848144531,0.2125041961669922,0
0.4608850479125977,0.2325513839721680,0
0.4548093795776367,0.2229755401611328,0
0.4840873718261718,0.2099052429199219,0
0.4571147918701172,0.2267040252685547,0
0.4696958541870117,0.2109420776367187,0
0.4574586868286132,0.2203285217285156,0
0.4508085250854492,0.2316638946533203,0
0.4860134124755859,0.2098514556884765,0
0.4515375137329101,0.2146305084228516,0
0.4572996139526367,0.1989789962768555,0
0.4482730865478515,0.1988588333129883,0
0.4302835464477539,0.2180150985717773,0
0.4701484680175781,0.2025100708007812,0
0.4530813217163085,0.2167104721069336,0
0.4425310134887695,0.2002149581909180,0
0.4532352447509765,0.1910110473632813,0
0.4648567199707031,0.1930932998657227,0
0.4380060195922851,0.2098005294799805,0
0.4519678115844726,0.2132452011108398,0
0.4581172943115234,0.2082532882690430,0
0.4383527755737305,0.2193649291992187,0
0.4428760528564453,0.2013376235961914,0
0.4428760528564453,0.2082618713378906,0
0.4530658721923828,0.1957740783691406,0
0.4474582672119141,0.1986379623413086,0
0.4312225341796875,0.2178428649902344,0
0.4738723754882812,0.2049997329711914,0
0.4579793930053710,0.2210277557373047,0
0.4487348556518554,0.2054506301879883,0
0.4604845046997070,0.1975027084350586,0
0.4724229812622070,0.1998584747314453,0
0.4457742691040039,0.2165136337280273,0
0.4601108551025390,0.2204246520996094,0
0.4666271209716797,0.2266382217407227,0
0.4619424819946289,0.2266382217407227,0
0.4514522552490234,0.2227804183959961,0
0.4468614578247070,0.2156925201416016,0
0.4614143371582031,0.2030376434326172,0
0.4552986145019531,0.2247024536132813,0
0.4636848449707031,0.2235712051391602,0
0.4701210021972656,0.2185146331787109,0
0.4503988265991211,0.2270593643188477,0
0.4558547973632812,0.2112453460693359,0
0.4668748855590820,0.2225217819213867,0
0.4635149002075195,0.2225217819213867,0
0.4566473007202148,0.2063987731933594,0
0.4399801254272461,0.2257467269897461,0
0.4817905426025391,0.2120538711547852,0
0.4704465866088867,0.2293687820434570,0
0.4557111740112305,0.2108802795410156,0
0.4534961700439453,0.2245765686035156,0
0.4622714996337891,0.2065509796142578,0
0.4761468887329101,0.2037214279174805,0
0.4380111694335938,0.2243133544921875,0
0.4627939224243164,0.2230670928955078,0
0.4687225341796875,0.2278461456298828,0
0.4636379241943359,0.2053934097290039,0
0.4522825241088867,0.2238235473632812,0
0.4476882934570313,0.2166326522827148,0
0.4616724014282226,0.2031011581420898,0
0.4547103881835937,0.2242990493774414,0
0.4630474090576172,0.2056234359741211,0
0.4695304870605468,0.2285762786865234,0
0.4646776199340820,0.2063003540039063,0
0.4888647079467773,0.2108545303344727,0
0.4667049407958984,0.2220617294311523,0
0.4632144927978515,0.2072816848754883,0
0.4563474655151367,0.2062511444091797,0
0.4399961471557617,0.2257106781005859,0
0.4714267730712891,0.2125534057617187,0
0.4714267730712891,0.2299587249755859,0
0.4574838638305664,0.2124309539794922,0
0.4555881500244141,0.2267681121826172,0
0.4652727127075195,0.2061796188354492,0
0.4527345657348633,0.2061796188354492,0
0.4666923522949218,0.2085823059082031,0
0.4642845153808594,0.2263132095336914,0
0.4732429504394531,0.2313280105590820,0
0.4687488555908203,0.2351182937622070,0
0.4925416946411132,0.2140302658081055,0
0.4486913681030273,0.2251871109008789,0
0.4671260833740234,0.2077371597290039,0
0.4600118637084961,0.2288692474365234,0
0.4685079574584960,0.2101518630981445,0
0.4752920150756836,0.2227586746215820,0
0.4566776275634765,0.2331527709960937,0
0.4949935913085937,0.2160541534423828,0
0.4595226287841797,0.2233737945556641,0
0.4692375183105468,0.2096036911010742,0
0.4564865112304687,0.2455987930297852,0
0.4698921203613281,0.2110439300537109,0
0.4667816162109375,0.2293693542480469,0
0.4560127258300781,0.2328941345214844,0
0.4706663131713867,0.2299730300903320,0
0.4556167602539062,0.2196092605590820,0
0.4675415039062500,0.2026210784912109,0
0.4473833084106445,0.2161228179931640,0
0.4557878494262695,0.2161228179931640,0
0.4534784317016601,0.2186788558959961,0
0.4452501296997070,0.2050889968872070,0
0.4566175460815429,0.2179595947265625,0
0.4461164474487305,0.2225200653076172,0
0.4551790237426758,0.1924581527709961,0
0.4325180053710938,0.2116773605346680,0
0.4475332260131836,0.2082229614257813,0
0.4425670623779297,0.2134735107421875,0
0.4395721435546875,0.2006875991821289,0
0.4573562622070312,0.2072319030761719,0
0.4329597473144531,0.2156724929809570,0
0.4382881164550781,0.2082635879516601,0
0.4552991867065430,0.2119085311889648,0
0.4390623092651367,0.2093828201293945,0
0.4495645523071289,0.2093828201293945,0
0.4502168655395508,0.2154178619384766,0
0.4422002792358398,0.2031938552856445,0
0.4569900512695312,0.2185770034790039,0
0.4480905532836914,0.2240867614746094,0
0.4592828750610352,0.1964447021484375,0
0.4373159408569336,0.2153795242309570,0
0.4535133361816406,0.2128229141235352,0
0.4483354568481445,0.2185415267944336,0
0.4461090087890625,0.2067672729492187,0
0.4644298553466797,0.2135461807250977,0
0.4523328781127929,0.2276235580444336,0
0.4849250793457031,0.2076999664306640,0
0.4414878845214844,0.2190050125122070,0
0.4597429275512695,0.2018720626831055,0
0.4524204254150390,0.2220594406127930,0
0.4613554000854492,0.2034645080566406,0
0.4686904907226562,0.2170881271362305,0
0.4508474349975586,0.2268070220947266,0
0.4888269424438476,0.2111143112182617,0
0.4531929016113281,0.2189180374145508,0
0.4631669998168945,0.2042089462280273,0
0.4548637390136718,0.2047903060913086,0
0.4387533187866211,0.2237342834472656,0
0.4517658233642578,0.2113803863525391,0
0.4658798217773437,0.2056943893432617,0
0.4567840576171875,0.2111486434936523,0
0.4535636901855469,0.2223478317260742,0
0.4642066955566406,0.2243482589721680,0
0.4511856079101562,0.2246429443359375,0
0.4609983444213867,0.2201465606689453,0
0.4609983444213867,0.2023258209228516,0
0.4730352401733398,0.2023258209228516,0
0.4526916503906250,0.2026926040649414,0
0.4526916503906250,0.2216257095336914,0
0.4495605468750000,0.2097707748413086,0
0.4795669555664062,0.2097707748413086,0
0.4643377304077148,0.2244861602783203,0
0.4432245254516601,0.2244861602783203,0
0.4517990112304687,0.2181587219238281,0
0.4663679122924804,0.2181587219238281,0
0.4618761062622070,0.2033580780029297,0
0.4739353179931640,0.2033580780029297,0
0.4537817001342773,0.2226642608642578,0
0.4379064559936524,0.2226642608642578,0
0.4507478713989257,0.2110519409179688,0
0.4810718536376953,0.2110519409179688,0
0.4658220291137695,0.2258411407470703,0
0.4448650360107422,0.2258411407470703,0
0.4534103393554687,0.2197689056396484,0
0.4515821456909179,0.2197689056396484,0
0.4636962890625000,0.2048915863037109,0
0.4756261825561523,0.2048915863037109,0
0.4555372238159179,0.2241382598876953,0
0.4397037506103516,0.2241382598876953,0
0.4524501800537109,0.2126157760620117,0
0.4829080581665039,0.2126157760620117,0
0.4675088882446289,0.2273546218872070,0
0.4466011047363281,0.2273546218872070,0
0.4551395416259765,0.2214963912963867,0
0.4535121917724609,0.2214963912963867,0
0.4654157638549805,0.2064720153808594,0
0.4772895812988281,0.2064720153808594,0
0.4571411132812500,0.2257215499877930,0
0.4413316726684570,0.2257215499877930,0
0.4539756774902344,0.2141372680664062,0
0.4845783233642578,0.2141372680664062,0
0.4692317962646484,0.2289167404174804,0
0.4483177185058594,0.2289167404174804,0
0.4567977905273437,0.2232290267944336,0
0.4554330825805664,0.2232290267944336,0
0.4671054840087890,0.2080776214599609,0
0.4789501190185547,0.2080776214599609,0
0.4590042114257812,0.2272373199462890,0
0.4431936264038086,0.2272373199462890,0
0.4555286407470703,0.2156993865966797,0
0.4862697601318359,0.2156993865966797,0
0.4708282470703125,0.2301635742187500,0
0.4496950149536132,0.2301635742187500,0
0.4723068237304687,0.2073383331298828,0
0.4482702255249023,0.2255670547485351,0
0.4520616531372070,0.2189031600952148,0
0.4616695404052734,0.2189031600952148,0
0.4626863479614258,0.2234092712402344,0
0.4562353134155273,0.2234092712402344,0
0.4663009643554688,0.2230533599853516,0
0.4466588973999023,0.2230533599853516,0
0.4519042968750000,0.2061882019042969,0
0.4818243026733398,0.2061882019042969,0
0.4592748641967773,0.2141613006591797,0
0.4349756240844727,0.2141613006591797,0
0.4389307022094727,0.2076948165893555,0
0.4491937637329101,0.2076948165893555,0
0.4511180877685547,0.2137893676757812,0
0.4459053039550781,0.2137893676757812,0
0.4574712753295898,0.2156856536865234,0
0.4392900466918945,0.2156856536865234,0
0.4461553573608398,0.2013599395751953,0
0.4774097442626953,0.2013599395751953,0
0.4560985565185547,0.2116516113281250,0
0.4328905105590820,0.2116516113281250,0
0.4379379272460938,0.2068376541137695,0
0.4491130828857422,0.2068376541137695,0
0.4516754150390625,0.2145881652832031,0
0.4468952178955078,0.2145881652832031,0
0.4593189239501953,0.2175395965576172,0
0.4417465209960937,0.2175395965576172,0
0.4492126464843750,0.2043022155761719,0
0.4807949066162109,0.2043022155761719,0
0.4599546432495117,0.2151248931884766,0
0.4370109558105469,0.2151248931884766,0
0.4423919677734375,0.2106771469116211,0
0.4538515090942383,0.2106771469116211,0
0.4564447402954102,0.2189867019653320,0
0.4516582489013672,0.2189867019653320,0
0.4643136978149414,0.2217264175415039,0
0.4467384338378906,0.2217264175415039,0
0.4544637680053711,0.2087419509887695,0
0.4857616424560547,0.2087419509887695,0
0.4648990631103516,0.2192939758300781,0
0.4417190551757812,0.2192939758300781,0
0.4470005035400391,0.2145647048950195,0
0.4583604812622070,0.2145647048950195,0
0.4609743118286133,0.2226448059082031,0
0.4559343338012695,0.2226448059082031,0
0.4686807632446289,0.2253971099853516,0
0.4509670257568359,0.2253971099853516,0
0.4586122512817383,0.2123514175415039,0
0.4897121429443359,0.2123514175415039,0
0.4687820434570312,0.2225286483764648,0
0.4454097747802734,0.2225286483764648,0
0.4504468917846680,0.2171567916870117,0
0.4614200592041016,0.2171567916870117,0
0.4635629653930664,0.2247877120971680,0
0.4578758239746094,0.2247877120971680,0
0.4704614639282226,0.2263549804687500,0
0.4522836685180664,0.2263549804687500,0
0.4598545074462890,0.2128641128540039,0
0.4901475906372070,0.2128641128540039,0
0.4690177917480469,0.2223810195922852,0
0.4451311111450195,0.2223810195922852,0
0.4498220443725586,0.2161766052246094,0
0.4605983734130859,0.2161766052246094,0
0.4623235702514648,0.2235940933227539,0
0.4562599182128906,0.2235940933227539,0
0.4688140869140625,0.2247814178466797,0
0.4505916595458984,0.2247814178466797,0
0.4583988189697266,0.2111955642700195,0
0.4883497238159180,0.2111955642700195,0
0.4673131942749023,0.2205654144287109,0
0.4433418273925781,0.2205654144287109,0
0.4483097076416016,0.2146928787231445,0
0.4591878890991211,0.2146928787231445,0
0.4610635757446289,0.2222906112670898,0
0.4551498413085937,0.2222906112670898,0
0.4680295944213867,0.2242195129394531,0
0.4500783920288086,0.2242195129394531,0
0.4585624694824219,0.2113700866699219,0
0.4885425567626953,0.2113700866699219,0
0.4677623748779297,0.2207685470581055,0
0.4439764022827148,0.2207685470581055,0
0.4490718841552734,0.2154619216918945,0
0.4601726531982422,0.2154619216918945,0
0.4621994018554687,0.2231855392456055,0
0.4562639236450195,0.2231855392456055,0
0.4693616867065429,0.2254858016967773,0
0.4514734268188476,0.2254858016967773,0
0.4605199813842773,0.2128068923950195,0
0.4901367187500000,0.2128068923950195,0
0.4694795608520508,0.2221704483032227,0
0.4456769943237305,0.2221704483032227,0
0.4508428573608398,0.2167694091796875,0
0.4619224548339844,0.2167694091796875,0
0.4638685226440429,0.2245244979858398,0
0.4578609466552734,0.2245244979858398,0
0.4711183547973632,0.2268362045288086,0
0.4532838821411133,0.2268362045288086,0
0.4624254226684570,0.2144966125488281,0
0.4917497634887695,0.2144966125488281,0
0.4712522506713867,0.2235506057739258,0
0.4474800109863281,0.2235506057739258,0
0.4525943756103515,0.2182159423828125,0
0.4636928558349609,0.2182159423828125,0
0.4655622482299804,0.2259298324584961,0
0.4592708587646484,0.2259298324584961,0
0.4727571487426758,0.2279720306396484,0
0.4549781799316406,0.2279720306396484,0
0.4641735076904296,0.2159351348876953,0
0.4932970046997070,0.2159351348876953,0
0.4729230880737305,0.2249010086059570,0
0.4490919113159180,0.2249010086059570,0
0.4541833877563476,0.2195411682128906,0
0.4653259277343750,0.2195411682128906,0
0.4671901702880859,0.2274175643920898,0
0.4608758926391601,0.2274175643920898,0
0.4744909286499023,0.2295289993286133,0
0.4567663192749023,0.2295289993286133,0
0.4661602020263672,0.2176603317260742,0
0.4951017379760742,0.2176603317260742,0
0.4748708724975585,0.2264287948608398,0
0.4507965087890625,0.2264287948608398,0
0.4555440902709961,0.2203428268432617,0
0.4661733627319335,0.2203428268432617,0
0.4669589996337891,0.2268167495727539,0
0.4592262268066406,0.2268167495727539,0
0.4717672348022461,0.2265008926391602,0
0.4524015426635742,0.2265008926391602,0
0.4602659225463867,0.2117752075195312,0
