REDsignal,IRsignal,synced
0.9418899536132812,0.5647573471069336,0
0.9635805130004882,0.5453716278076172,0
0.9635805130004882,0.5499361038208007,0
0.9557424545288086,0.5432676315307617,0
0.9565349578857422,0.5564569473266602,0
0.9415958404541015,0.5564569473266602,0
0.9547101974487304,0.5517751693725585,0
0.9407529830932617,0.5517751693725585,0
0.9532030105590820,0.5469160079956055,0
0.9783187866210937,0.5469160079956055,0
0.9584867477416992,0.5611587524414062,0
0.9398077011108398,0.5611587524414062,0
0.9457191467285155,0.5510267257690430,0
0.9614679336547851,0.5510267257690430,0
0.9607801437377930,0.5614562988281250,0
0.9475650787353516,0.5614562988281250,0
0.9617626190185546,0.5595399856567382,0
0.9490659713745117,0.5595399856567382,0
0.9623674392700194,0.5561336517333985,0
0.9877658843994140,0.5561336517333985,0
0.9681163787841797,0.5710000991821289,0
0.9496742248535156,0.5710000991821289,0
0.9553848266601562,0.5604383468627929,0
0.9706689834594726,0.5604383468627929,0
0.9693071365356445,0.5696285247802734,0
0.9553487777709960,0.5696285247802734,0
0.9687269210815429,0.5663635253906250,0
0.9553836822509765,0.5663635253906250,0
0.9678926467895508,0.5617361068725586,0
0.9923904418945312,0.5617361068725586,0
0.9723489761352538,0.5754140853881836,0
0.9751338958740234,0.5754140853881836,0
0.9589296340942383,0.5643367767333984,0
0.9740158081054687,0.5643367767333984,0
0.9725486755371093,0.5734056472778321,0
0.9586252212524413,0.5734056472778321,0
0.9717784881591797,0.5699552536010742,0
0.9586732864379882,0.5699552536010742,0
0.9713190078735351,0.5652076721191406,0
0.9956502914428711,0.5652076721191406,0
0.9754079818725585,0.5786579132080077,0
0.9565292358398437,0.5786579132080077,0
0.9619628906250000,0.5670564651489257,0
0.9768676757812500,0.5670564651489257,0
0.9749708175659180,0.5756647109985351,0
0.9607669830322265,0.5756647109985351,0
0.9737022399902343,0.5715711593627929,0
0.9603097915649413,0.5715711593627929,0
0.9727157592773437,0.5662239074707031,0
0.9968679428100585,0.5662239074707031,0
0.9763481140136718,0.5794097900390625,0
0.9573921203613280,0.5794097900390625,0
0.9626615524291992,0.5674592971801757,0
0.9776069641113281,0.5674592971801757,0
0.9755533218383788,0.5759078979492187,0
0.9612098693847656,0.5759078979492187,0
0.9740461349487304,0.5719453811645507,0
0.9607755661010742,0.5719453811645507,0
0.9734041213989257,0.5666461944580078,0
0.9975740432739257,0.5666461944580078,0
0.9770370483398437,0.5801210403442383,0
0.9581926345825195,0.5801210403442383,0
0.9636182785034180,0.5682952880859374,0
0.9786203384399413,0.5682952880859374,0
0.9763853073120117,0.5768142700195312,0
0.9620544433593750,0.5768142700195312,0
0.9748495101928710,0.5728431701660156,0
0.9616413116455078,0.5728431701660156,0
0.9743122100830077,0.5675319671630860,0
0.9986051559448241,0.5675319671630860,0
0.9777877807617187,0.5813615798950195,0
0.9590589523315429,0.5813615798950195,0
0.9647232055664062,0.5696125030517578,0
0.9801326751708984,0.5696125030517578,0
0.9781265258789062,0.5785383224487305,0
0.9648788452148437,0.5785383224487305,0
0.9766622543334961,0.5730937957763672,0
0.9630838394165039,0.5730937957763672,0
0.9753822326660155,0.5684120178222656,0
0.9994371414184570,0.5684120178222656,0
0.9797647476196288,0.5826370239257812,0
0.9610107421874999,0.5826370239257812,0
0.9666046142578124,0.5712255477905274,0
0.9816530227661132,0.5712255477905274,0
0.9794689178466797,0.5791414260864257,0
0.9652359008789062,0.5791414260864257,0
0.9777357101440429,0.5753482818603516,0
0.9644514083862304,0.5753482818603516,0
0.9774982452392578,0.5694030761718750,0
1.0016092300415038,0.5694030761718750,0
0.9802968978881835,0.5838518142700195,0
0.9621145248413085,0.5838518142700195,0
0.9678199768066406,0.5723962783813477,0
0.9825788497924804,0.5723962783813477,0
0.9808799743652343,0.5812820434570313,0
0.9665571212768554,0.5812820434570313,0
0.9791152954101562,0.5764360427856445,0
0.9657560348510742,0.5764360427856445,0
0.9793876647949218,0.5706356048583984,0
1.0028560638427735,0.5706356048583984,0
0.9817880630493163,0.5852525711059570,0
0.9635879516601562,0.5852525711059570,0
0.9692241668701171,0.5736957550048828,0
0.9841100692749023,0.5736957550048828,0
0.9822395324707031,0.5828659057617187,0
0.9678159713745117,0.5828659057617187,0
0.9804428100585937,0.5776130676269531,0
0.9670480728149413,0.5776130676269531,0
0.9806756973266602,0.5719642639160156,0
1.0043621063232422,0.5719642639160156,0
0.9831779479980468,0.5865600585937499,0
0.9648593902587890,0.5865600585937499,0
0.9706272125244140,0.5750581741333007,0
0.9855869293212890,0.5750581741333007,0
0.9836523056030273,0.5842363357543945,0
0.9692464828491211,0.5842363357543945,0
0.9818567276000976,0.5791557312011718,0
0.9684362411499023,0.5791557312011718,0
0.9821542739868163,0.5732357025146484,0
1.0058481216430664,0.5732357025146484,0
0.9844820022583007,0.5880117416381836,0
0.9662429809570312,0.5880117416381836,0
0.9719427108764648,0.5763542175292968,0
0.9869316101074218,0.5763542175292968,0
0.9848281860351562,0.5853784561157226,0
0.9702438354492187,0.5853784561157226,0
0.9824758529663086,0.5799310684204101,0
0.9687337875366211,0.5799310684204101,0
0.9822057723999023,0.5730382919311523,0
1.0051906585693360,0.5730382919311523,0
0.9827596664428710,0.5859884262084961,0
0.9634059906005858,0.5859884262084961,0
0.9677799224853515,0.5716220855712890,0
0.9810270309448241,0.5716220855712890,0
0.9769420623779297,0.5770557403564452,0
0.9602497100830077,0.5770557403564452,0
0.9699142456054687,0.5669351577758789,0
0.9538192749023438,0.5669351577758789,0
0.9652530670166015,0.5558423995971680,0
0.9863674163818359,0.5558423995971680,0
0.9629928588867187,0.5668727874755859,0
0.9434503555297851,0.5668727874755859,0
0.9482883453369140,0.5528503417968750,0
0.9623685836791992,0.5528503417968750,0
0.9595121383666991,0.5608560562133789,0
0.9448562622070312,0.5608560562133789,0
0.9569601058959960,0.5556381225585937,0
0.9438085556030273,0.5556381225585937,0
0.9582241058349609,0.5500957489013671,0
0.9821943283081054,0.5500957489013671,0
0.9611949920654297,0.5663366317749023,0
0.9441741943359374,0.5663366317749023,0
0.9510051727294921,0.5563327789306640,0
0.9669427871704102,0.5563327789306640,0
0.9654808044433594,0.5672578811645508,0
0.9519699096679687,0.5672578811645508,0
0.9649995803833007,0.5638423919677734,0
0.9524894714355469,0.5638423919677734,0
0.9672695159912109,0.5588893890380859,0
0.9913639068603515,0.5588893890380859,0
0.9701906204223633,0.5751348495483398,0
0.9529277801513671,0.5751348495483398,0
0.9595144271850585,0.5643854141235352,0
0.9749479293823242,0.5643854141235352,0
0.9729068756103515,0.5743343353271484,0
0.9589462280273438,0.5743343353271484,0
0.9714197158813476,0.5700216293334961,0
0.9585371017456055,0.5700216293334961,0
0.9729257583618164,0.5642463684082031,0
0.9966688156127930,0.5642463684082031,0
0.9753845214843749,0.5799585342407226,0
0.9579219818115234,0.5799585342407226,0
0.9641544342041015,0.5687782287597656,0
0.9795118331909179,0.5687782287597656,0
0.9772235870361328,0.5783174514770507,0
0.9629922866821289,0.5783174514770507,0
0.9750577926635742,0.5734708786010742,0
0.9802940368652343,0.5734708786010742,0
0.9761323928833008,0.5670547485351562,0
0.9997055053710937,0.5670547485351562,0
0.9778604507446289,0.5821660995483399,0
0.9600391387939453,0.5821660995483399,0
0.9662120819091796,0.5702997207641601,0
0.9766754150390624,0.5702997207641601,0
0.9784973144531249,0.5794057846069336,0
0.9641447067260742,0.5794057846069336,0
0.9759206771850586,0.5741111755371093,0
0.9626564025878905,0.5741111755371093,0
1.0000196456909178,0.5673305511474609,0
0.9663185119628905,0.5673305511474609,0
0.9782621383666992,0.5825551986694336,0
0.9606107711791991,0.5825551986694336,0
0.9668008804321289,0.5707265853881835,0
0.9822069168090820,0.5707265853881835,0
0.9794609069824218,0.5800329208374023,0
0.9649583816528320,0.5800329208374023,0
0.9769638061523437,0.5748161315917969,0
0.9638305664062500,0.5748161315917969,0
0.9780767440795898,0.5682106018066406,0
1.0016716003417969,0.5682106018066406,0
0.9797515869140625,0.5837419509887695,0
0.9619766235351562,0.5837419509887695,0
0.9683641433715819,0.5718315124511718,0
0.9838285446166992,0.5718315124511718,0
0.9810533523559570,0.5814640045166015,0
0.9647014617919921,0.5814640045166015,0
0.9784715652465820,0.5763874053955078,0
0.9654035568237305,0.5763874053955078,0
0.9797372817993164,0.5697103500366211,0
1.0034334182739257,0.5697103500366211,0
0.9815563201904296,0.5854997634887695,0
0.9637035369873046,0.5854997634887695,0
0.9702083587646484,0.5736705780029296,0
0.9859153747558593,0.5736705780029296,0
0.9829576492309570,0.5832756042480468,0
0.9682886123657226,0.5832756042480468,0
0.9803255081176757,0.5781932830810547,0
0.9673004150390625,0.5781932830810547,0
0.9815774917602539,0.5713497161865234,0
1.0053016662597656,0.5713497161865234,0
0.9832918167114257,0.5873153686523437,0
0.9654058456420898,0.5873153686523437,0
0.9719821929931640,0.5753374099731445,0
0.9878087997436523,0.5753374099731445,0
0.9847217559814453,0.5849384307861328,0
0.9700075149536133,0.5849384307861328,0
0.9819202423095703,0.5797800064086914,0
0.9688768386840820,0.5797800064086914,0
0.9831178665161132,0.5728357315063476,0
1.0068134307861327,0.5728357315063476,0
0.9845947265624999,0.5886674880981445,0
0.9667516708374023,0.5886674880981445,0
0.9733589172363281,0.5765029907226562,0
0.9889881134033203,0.5765029907226562,0
0.9858083724975586,0.5861206054687500,0
0.9710357666015624,0.5861206054687500,0
0.9827922821044921,0.5807870864868164,0
0.9696516036987304,0.5807870864868164,0
0.9841106414794921,0.5737398147583007,0
1.0077009201049805,0.5737398147583007,0
0.9854255676269531,0.5895812988281249,0
0.9675647735595703,0.5895812988281249,0
0.9741405487060546,0.5772863388061523,0
0.9898967742919922,0.5772863388061523,0
0.9866117477416991,0.5868352890014649,0
0.9719289779663085,0.5868352890014649,0
0.9836099624633788,0.5815876007080077,0
0.9704835891723632,0.5815876007080077,0
0.9848424911499023,0.5742422103881836,0
1.0085649490356445,0.5742422103881836,0
0.9861980438232422,0.5901254653930664,0
0.9684459686279296,0.5901254653930664,0
0.9749885559082031,0.5779907226562500,0
0.9908111572265624,0.5779907226562500,0
0.9874179840087890,0.5874893188476562,0
0.9727895736694335,0.5874893188476562,0
0.9843795776367187,0.5823125839233398,0
0.9713996887207030,0.5823125839233398,0
0.9857614517211913,0.5751010894775390,0
1.0095891952514648,0.5751010894775390,0
0.9871822357177734,0.5911811828613281,0
0.9694227218627929,0.5911811828613281,0
0.9761941909790038,0.5790733337402344,0
0.9921072006225585,0.5790733337402344,0
0.9886751174926758,0.5886056900024413,0
0.9739740371704101,0.5886056900024413,0
0.9855216979980468,0.5832790374755860,0
0.9723661422729492,0.5832790374755860,0
0.9863977432250977,0.5752286911010742,0
1.0095491409301758,0.5752286911010742,0
0.9863822937011718,0.5897163391113281,0
0.9895671844482421,0.5696239471435547,0
0.9929231643676757,0.5815567016601563,0
0.9815265655517578,0.5865200042724609,0
0.9625465393066406,0.5639614105224610,0
0.9952777862548827,0.5639614105224610,0
0.9753318786621094,0.5719951629638672,0
0.9515756607055663,0.5719951629638672,0
0.9546684265136718,0.5729387283325195,0
0.9546094894409179,0.5729387283325195,0
0.9662950515747070,0.5588882446289062,0
0.9694370269775390,0.5588882446289062,0
0.9584638595581054,0.5644838333129882,0
0.9417737960815429,0.5644838333129882,0
0.9420467376708984,0.5450397491455078,0
0.9774576187133789,0.5450397491455078,0
0.9602210998535156,0.5586479187011718,0
0.9396800994873047,0.5586479187011718,0
0.9458181381225585,0.5656482696533203,0
0.9485658645629882,0.5656482696533203,0
0.9629653930664062,0.5568277359008789,0
0.9684785842895507,0.5568277359008789,0
0.9596237182617187,0.5665248870849610,0
0.9449306488037109,0.5665248870849610,0
0.9466838836669922,0.5503784179687500,0
0.9835779190063476,0.5503784179687500,0
0.9674068450927734,0.5662330627441406,0
0.9476406097412109,0.5662330627441406,0
0.9544435501098633,0.5743434906005859,0
0.9574802398681640,0.5743434906005859,0
0.9719684600830077,0.5657936096191406,0
0.9775880813598632,0.5657936096191406,0
0.9685855865478515,0.5751651763916016,0
0.9536321640014648,0.5751651763916016,0
0.9551181793212891,0.5581901550292968,0
0.9915086746215820,0.5581901550292968,0
0.9749107360839844,0.5732385635375976,0
0.9547725677490234,0.5732385635375976,0
0.9611532211303710,0.5804695129394531,0
0.9637447357177734,0.5804695129394531,0
0.9779365539550781,0.5712673187255859,0
0.9831230163574218,0.5712673187255859,0
0.9737909317016601,0.5800535202026367,0
0.9585102081298827,0.5800535202026367,0
0.9597124099731444,0.5625858306884766,0
0.9957956314086913,0.5625858306884766,0
0.9789579391479492,0.5770408630371093,0
0.9586149215698242,0.5770408630371093,0
0.9646831512451172,0.5836338043212891,0
0.9668043136596679,0.5836338043212891,0
0.9807128906250000,0.5735189437866210,0
0.9854524612426757,0.5735189437866210,0
0.9759681701660156,0.5818651199340820,0
0.9602479934692383,0.5818651199340820,0
0.9613483428955077,0.5636610031127930,0
0.9972055435180663,0.5636610031127930,0
0.9799724578857422,0.5777194976806640,0
0.9594371795654296,0.5777194976806640,0
0.9653537750244140,0.5842191696166992,0
0.9674308776855468,0.5842191696166992,0
0.9811803817749023,0.5740259170532226,0
0.9859777450561523,0.5740259170532226,0
0.9764379501342773,0.5822021484375000,0
0.9608098983764648,0.5822021484375000,0
0.9618541717529296,0.5641605377197265,0
0.9977874755859375,0.5641605377197265,0
0.9806716918945312,0.5782773971557617,0
0.9601055145263672,0.5782773971557617,0
0.9660667419433593,0.5848726272583008,0
0.9682897567749023,0.5848726272583008,0
0.9821662902832031,0.5750598907470703,0
0.9871049880981445,0.5750598907470703,0
0.9776767730712890,0.5834398269653320,0
0.9620910644531250,0.5834398269653320,0
0.9633607864379883,0.5655155181884766,0
0.9992729187011719,0.5655155181884766,0
0.9823041915893554,0.5797960281372070,0
0.9617918014526367,0.5797960281372070,0
0.9679109573364257,0.5864822387695312,0
0.9700681686401367,0.5864822387695312,0
0.9839641571044921,0.5766723632812499,0
0.9888072967529297,0.5766723632812499,0
0.9794157028198242,0.5850145339965820,0
0.9638219833374023,0.5850145339965820,0
0.9649738311767577,0.5671857833862305,0
1.0008567810058593,0.5671857833862305,0
0.9837862014770508,0.5813323974609375,0
0.9632766723632812,0.5813323974609375,0
0.9693386077880859,0.5879653930664063,0
0.9716348648071289,0.5879653930664063,0
0.9853780746459960,0.5781366348266601,0
0.9902372360229492,0.5781366348266601,0
0.9807495117187499,0.5864009857177734,0
0.9651597976684569,0.5864009857177734,0
0.9662864685058593,0.5685167312622070,0
1.0021883010864256,0.5685167312622070,0
0.9852333068847656,0.5826581954956055,0
0.9646402359008789,0.5826581954956055,0
0.9707170486450195,0.5893123626708984,0
0.9729509353637695,0.5893123626708984,0
0.9868331909179687,0.5794103622436523,0
0.9916700363159179,0.5794103622436523,0
0.9822275161743164,0.5877313613891602,0
0.9666864395141601,0.5877313613891602,0
0.9678308486938476,0.5698808670043946,0
1.0037584304809570,0.5698808670043946,0
0.9868366241455078,0.5840669631958008,0
0.9661640167236327,0.5840669631958008,0
0.9722499847412109,0.5906530380249023,0
0.9744306564331054,0.5906530380249023,0
0.9882848739624023,0.5807939529418945,0
0.9930770874023437,0.5807939529418945,0
0.9835865020751953,0.5889404296874999,0
0.9679315567016601,0.5889404296874999,0
0.9690782546997070,0.5708999633789062,0
1.0048896789550781,0.5708999633789062,0
0.9878414154052734,0.5850414276123047,0
0.9671613693237304,0.5850414276123047,0
0.9731998443603516,0.5915988922119141,0
0.9753908157348632,0.5915988922119141,0
0.9892324447631835,0.5818141937255860,0
0.9939834594726562,0.5818141937255860,0
0.9846239089965820,0.5899497985839843,0
0.9690021514892577,0.5899497985839843,0
0.9701734542846679,0.5719551086425781,0
1.0059419631958006,0.5719551086425781,0
0.9888462066650390,0.5859712600708008,0
0.9681810379028319,0.5859712600708008,0
0.9741880416870117,0.5925567626953124,0
0.9762794494628906,0.5925567626953124,0
0.9900117874145508,0.5825031280517577,0
0.9945590972900390,0.5825031280517577,0
0.9848533630371094,0.5898347854614258,0
0.9685140609741211,0.5898347854614258,0
1.0032365798950196,0.5700513839721679,0
0.9798997879028319,0.5776468276977539,0
0.9783863067626952,0.5735458374023438,0
0.9738761901855468,0.5614517211914062,0
0.9528911590576171,0.5768257141113281,0
0.9567586898803710,0.5579515457153320,0
0.9446714401245117,0.5622962951660156,0
0.9446714401245117,0.5530712127685546,0
0.9594423294067382,0.5565908432006835,0
0.9421062469482422,0.5607908248901367,0
0.9523578643798828,0.5415853500366211,0
0.9409870147705077,0.5495132446289063,0
0.9357690811157227,0.5577552795410156,0
0.9530845642089844,0.5537727355957031,0
0.9501525878906250,0.5494583129882812,0
0.9569297790527344,0.5333272933959960,0
0.9435241699218749,0.5629657745361328,0
0.9553522109985351,0.5629657745361328,0
0.9662767410278320,0.5546504974365234,0
0.9579620361328125,0.5644128799438476,0
0.9601610183715820,0.5610803604125977,0
0.9578350067138671,0.5595211029052735,0
0.9609443664550781,0.5629251480102538,0
0.9609443664550781,0.5502233505249023,0
0.9458381652832031,0.5680538177490234,0
0.9681673049926758,0.5617847442626953,0
0.9646934509277343,0.5708318710327148,0
0.9666326522827148,0.5708318710327148,0
0.9637996673583984,0.5652832031250000,0
0.9515727996826171,0.5629732131958007,0
0.9668231964111328,0.5558120727539062,0
0.9687475204467773,0.5736276626586914,0
0.9739923477172852,0.5674404144287110,0
0.9705064773559570,0.5763874053955078,0
0.9723215103149414,0.5763874053955078,0
0.9689300537109374,0.5700130462646484,0
0.9563970565795898,0.5677162170410156,0
0.9949636459350586,0.5595211029052735,0
0.9611166000366210,0.5796403884887695,0
0.9771188735961913,0.5700250625610351,0
0.9621288299560546,0.6007810592651367,0
0.9741577148437499,0.5541898727416992,0
0.9703468322753905,0.5599084854125976,0
0.9703468322753905,0.5688245773315429,0
0.9958677291870117,0.5603027343750000,0
0.9620973587036132,0.5804323196411133,0
0.9778472900390625,0.5580316543579101,0
0.9629642486572265,0.5627775192260742,0
0.9577497482299804,0.5789812088012695,0
0.9592666625976562,0.5607742309570313,0
0.9712388992309570,0.5721897125244141,0
0.9733892440795898,0.5689847946166992,0
0.9970653533935546,0.5614900588989258,0
0.9571111679077148,0.5786705017089844,0
0.9794254302978516,0.5721725463867188,0
0.9754674911499023,0.5807258605957031,0
0.9768865585327148,0.5807258605957031,0
0.9731203079223633,0.5740104675292969,0
0.9605861663818359,0.5716260910034180,0
0.9991785049438476,0.5632638931274414,0
0.9654561996459960,0.5835577011108398,0
0.9812862396240234,0.5612228393554687,0
0.9858753204345703,0.5740133285522461,0
0.9612527847290039,0.5822874069213867,0
0.9785957336425781,0.5781286239624023,0
0.9746292114257812,0.5731779098510742,0
0.9811729431152343,0.5565696716308594,0
0.9668809890747070,0.5978107452392578,0
0.9690919876098633,0.5849859237670898,0
0.9875598907470703,0.5755016326904296,0
0.9683109283447265,0.5696331024169922,0
0.9803695678710938,0.5797451019287109,0
0.9647506713867187,0.5797451019287109,0
0.9830417633056641,0.5747915267944336,0
0.9830417633056641,0.5796867370605469,0
0.9686908721923828,0.5864501953125000,0
0.9793647766113280,0.5682031631469726,0
0.9697259902954101,0.6076395034790039,0
0.9865974426269530,0.5709840774536132,0
0.9666446685791015,0.5810588836669922,0
0.9658927917480469,0.5668796539306641,0
0.9841867446899414,0.5808671951293946,0
0.9798374176025391,0.5808671951293946,0
0.9805961608886719,0.5693269729614258,0
0.9805961608886719,0.5845367431640625,0
0.9878465652465820,0.5721616744995117,0
0.9816032409667969,0.5864187240600586,0
0.9672248840332031,0.5680492401123046,0
1.0029310226440429,0.5680492401123046,0
0.9809577941894531,0.5819515228271485,0
0.9809577941894531,0.5682981491088867,0
0.9814504623413085,0.5853950500488281,0
0.9862936019897460,0.5657152175903321,0
0.9813480377197266,0.5695123672485352,0
0.9642980575561523,0.5856330871582031,0
0.9645824432373047,0.5647190093994140,0
0.9787038803100585,0.5742731094360352,0
0.9713802337646484,0.5646286010742188,0
0.9647157669067382,0.5522958755493164,0
0.9437152862548828,0.5675863265991211,0
0.9623697280883788,0.5488895416259766,0
0.9560783386230468,0.5603256225585938,0
0.9366983413696288,0.5373676300048827,0
0.9459640502929687,0.5373676300048827,0
0.9454044342041015,0.5480541229248047,0
0.9454044342041015,0.5332311630249024,0
0.9444608688354492,0.5494668960571288,0
0.9492542266845703,0.5298637390136719,0
0.9452693939208984,0.5350484848022461,0
0.9293832778930664,0.5510587692260742,0
0.9675825119018554,0.5334051132202148,0
0.9431957244873046,0.5429735183715820,0
0.9466764450073242,0.5352035522460937,0
0.9373163223266601,0.5352035522460937,0
0.9544040679931640,0.5539604187011719,0
0.9544040679931640,0.5481765747070312,0
0.9516620635986328,0.5575899124145508,0
0.9534999847412109,0.5342519760131835,0
0.9501617431640624,0.5499670028686523,0
0.9382844924926758,0.5499670028686523,0
0.9773071289062499,0.5417793273925781,0
0.9437690734863281,0.5626665115356445,0
0.9573091506958007,0.5629240036010742,0
0.9556703567504883,0.5607181549072265,0
0.9612453460693359,0.5512538909912109,0
0.9447738647460937,0.5663652420043945,0
0.9643026351928711,0.5548376083374024,0
0.9643026351928711,0.5696662902832031,0
0.9507545471191405,0.5519880294799805,0
0.9621139526367187,0.5637571334838867,0
0.9649772644042969,0.5599714279174804,0
0.9886447906494140,0.5527198791503906,0
0.9486940383911132,0.5704565048217773,0
0.9711856842041016,0.5640832901000976,0
0.9675493240356445,0.5723865509033202,0
0.9687086105346679,0.5723865509033202,0
0.9642316818237304,0.5655372619628906,0
0.9518926620483398,0.5631168365478515,0
0.9666337966918945,0.5541212081909179,0
0.9568010330200195,0.5875946044921875,0
0.9725858688354492,0.5522878646850585,0
0.9768848419189453,0.5653501510620117,0
0.9527418136596679,0.5735721588134766,0
0.9700498580932617,0.5694528579711914,0
0.9657314300537109,0.5645519256591797,0
0.9684059143066406,0.5629772186279297,0
0.9920848846435546,0.5558326721191406,0
0.9747362136840820,0.5736047744750976,0
0.9778575897216797,0.5613664627075196,0
0.9712903976440429,0.5758644104003906,0
0.9571472167968750,0.5578313827514648,0
0.9682725906372069,0.5695821762084960,0
0.9709968566894531,0.5719076156616211,0
0.9613248825073242,0.5788564682006836,0
0.9638568878173828,0.5788564682006836,0
0.9773145675659179,0.5695810317993164,0
0.9816564559936523,0.5695810317993164,0
0.9736896514892578,0.5781469345092773,0
0.9575311660766601,0.5781469345092773,0
0.9594114303588867,0.5598621368408203,0
0.9950557708740234,0.5598621368408203,0
0.9772911071777344,0.5737260818481446,0
0.9562591552734374,0.5737260818481446,0
0.9630260467529297,0.5805027008056640,0
0.9654247283935546,0.5805027008056640,0
0.9788017272949219,0.5710905075073242,0
0.9830778121948242,0.5710905075073242,0
0.9750331878662108,0.5793405532836914,0
0.9760877609252929,0.5793405532836914,0
0.9607681274414062,0.5610975265502930,0
0.9962928771972656,0.5610975265502930,0
0.9785276412963867,0.5748767852783203,0
0.9574768066406250,0.5748767852783203,0
0.9643072128295898,0.5816316604614258,0
0.9668575286865234,0.5816316604614258,0
0.9802471160888672,0.5724506378173828,0
0.9846067428588867,0.5724506378173828,0
0.9765701293945312,0.5808111190795898,0
0.9603864669799804,0.5808111190795898,0
0.9624011993408202,0.5625572204589844,0
0.9980741500854492,0.5625572204589844,0
0.9803237915039062,0.5763702392578125,0
0.9593381881713867,0.5763702392578125,0
0.9661428451538085,0.5832258224487304,0
0.9684734344482422,0.5832258224487304,0
0.9818086624145508,0.5738628387451171,0
0.9861860275268555,0.5738628387451171,0
0.9782403945922851,0.5821695327758789,0
0.9619657516479492,0.5821695327758789,0
0.9638763427734375,0.5639522552490234,0
0.9995515823364257,0.5639522552490234,0
0.9817743301391602,0.5777389526367187,0
0.9607578277587890,0.5777389526367187,0
0.9676111221313476,0.5845584869384766,0
0.9699731826782226,0.5845584869384766,0
0.9833307266235352,0.5751256942749023,0
0.9874780654907226,0.5751256942749023,0
0.9792749404907226,0.5831251144409180,0
0.9628492355346679,0.5831251144409180,0
0.9642185211181640,0.5636621475219726,0
0.9987899780273437,0.5636621475219726,0
0.9796651840209960,0.5748687744140625,0
0.9566751480102539,0.5748687744140625,0
0.9609621047973632,0.5767759323120117,0
0.9596294403076171,0.5767759323120117,0
0.9691549301147461,0.5596389770507812,0
0.9689912796020508,0.5596389770507812,0
0.9571649551391601,0.5603124618530273,0
0.9371458053588867,0.5603124618530273,0
0.9356008529663086,0.5351062774658203,0
0.9678646087646484,0.5351062774658203,0
0.9472160339355469,0.5432178497314453,0
0.9237459182739257,0.5432178497314453,0
0.9284757614135741,0.5459444046020507,0
0.9290182113647460,0.5459444046020507,0
0.9409818649291992,0.5338171005249023,0
0.9441152572631836,0.5338171005249023,0
0.9354503631591796,0.5406990051269531,0
0.9187746047973633,0.5406990051269531,0
0.9204517364501953,0.5218379974365234,0
0.9560634613037109,0.5218379974365234,0
0.9383480072021484,0.5358278274536132,0
0.9175014495849609,0.5358278274536132,0
0.9246803283691406,0.5433088302612304,0
0.9274795532226562,0.5433088302612304,0
0.9412496566772460,0.5348396301269531,0
0.9460796356201171,0.5348396301269531,0
0.9387016296386719,0.5441316604614258,0
0.9230192184448242,0.5441316604614258,0
0.9254236221313477,0.5268196105957031,0
0.9615766525268554,0.5268196105957031,0
0.9440826416015624,0.5413896560668945,0
0.9235084533691406,0.5413896560668945,0
0.9306364059448242,0.5488540649414062,0
0.9333045959472656,0.5488540649414062,0
0.9468189239501953,0.5400856018066406,0
0.9512878417968750,0.5400856018066406,0
0.9436105728149413,0.5487825393676757,0
0.9275247573852539,0.5487825393676757,0
0.9297843933105469,0.5309326171875000,0
0.9657640457153320,0.5309326171875000,0
0.9482242584228515,0.5455604553222656,0
0.9277565002441406,0.5455604553222656,0
0.9350675582885741,0.5534368515014648,0
0.9380750656127930,0.5534368515014648,0
0.9521284103393555,0.5456565856933594,0
0.9571140289306640,0.5456565856933594,0
0.9499305725097655,0.5553457260131835,0
0.9343236923217773,0.5553457260131835,0
0.9370038986206054,0.5382539749145507,0
0.9732679367065429,0.5382539749145507,0
0.9558752059936523,0.5531644821166992,0
0.9353519439697265,0.5531644821166992,0
0.9426761627197265,0.5606529235839843,0
0.9454685211181640,0.5606529235839843,0
0.9590681076049804,0.5518060684204101,0
0.9634248733520507,0.5518060684204101,0
0.9558271408081054,0.5606014251708984,0
0.9396457672119141,0.5606014251708984,0
0.9416862487792969,0.5424659729003906,0
0.9773323059082031,0.5424659729003906,0
0.9595132827758789,0.5563316345214844,0
0.9385580062866210,0.5563316345214844,0
0.9454307556152344,0.5632129669189453,0
0.9479312896728516,0.5632129669189453,0
0.9613775253295898,0.5539678573608399,0
0.9657016754150390,0.5539678573608399,0
0.9579883575439453,0.5624891281127929,0
0.9417274475097656,0.5624891281127929,0
0.9437839508056640,0.5442678451538085,0
0.9795404434204101,0.5442678451538085,0
0.9617265701293944,0.5582559585571288,0
0.9407730102539062,0.5582559585571288,0
0.9478282928466797,0.5653793334960937,0
0.9503637313842773,0.5653793334960937,0
0.9638236999511718,0.5563442230224609,0
0.9682016372680664,0.5563442230224609,0
0.9605604171752929,0.5650136947631835,0
0.9444368362426757,0.5650136947631835,0
0.9466867446899414,0.5470579147338867,0
0.9824283599853515,0.5470579147338867,0
0.9646144866943359,0.5611782073974609,0
0.9439006805419922,0.5611782073974609,0
0.9510343551635742,0.5684274673461914,0
0.9535766601562500,0.5684274673461914,0
0.9672071456909179,0.5596269607543946,0
0.9716308593749999,0.5596269607543946,0
0.9641298294067382,0.5684251785278320,0
0.9480073928833007,0.5684251785278320,0
0.9503866195678711,0.5504516601562500,0
0.9860807418823242,0.5504516601562500,0
0.9682233810424804,0.5644792556762696,0
0.9473550796508788,0.5644792556762696,0
0.9545396804809569,0.5716255187988281,0
0.9570030212402343,0.5716255187988281,0
0.9704647064208984,0.5626831054687500,0
0.9748466491699218,0.5626831054687500,0
0.9671567916870116,0.5712718963623047,0
0.9510898590087891,0.5712718963623047,0
0.9531257629394531,0.5531147003173827,0
0.9888027191162109,0.5531147003173827,0
0.9710712432861328,0.5670787811279296,0
0.9501686096191406,0.5670787811279296,0
0.9571981430053711,0.5741231918334960,0
0.9596271514892578,0.5741231918334960,0
0.9730854034423828,0.5648941040039063,0
0.9772922515869140,0.5648941040039063,0
0.9695777893066406,0.5735406875610352,0
0.9534101486206055,0.5735406875610352,0
0.9554351806640624,0.5551883697509765,0
0.9910182952880859,0.5551883697509765,0
0.9731843948364257,0.5690454483032227,0
0.9521312713623047,0.5690454483032227,0
0.9591070175170898,0.5758798599243163,0
0.9615823745727539,0.5758798599243163,0
0.9750434875488281,0.5667257308959961,0
0.9791507720947266,0.5667257308959961,0
0.9714946746826172,0.5750753402709960,0
0.9551879882812500,0.5750753402709960,0
0.9571809768676758,0.5567848205566406,0
0.9927429199218749,0.5567848205566406,0
0.9748941421508789,0.5705715179443359,0
0.9538959503173827,0.5705715179443359,0
0.9608236312866211,0.5774534225463867,0
0.9632434844970703,0.5774534225463867,0
0.9766027450561523,0.5682357788085938,0
0.9807729721069336,0.5682357788085938,0
0.9729143142700195,0.5764984130859375,0
0.9567506790161132,0.5764984130859375,0
0.9588014602661132,0.5581575393676758,0
0.9943204879760742,0.5581575393676758,0
0.9763504028320312,0.5719676971435547,0
0.9553127288818359,0.5719676971435547,0
0.9622804641723632,0.5787883758544922,0
0.9647695541381835,0.5787883758544922,0
0.9780910491943359,0.5697240829467773,0
0.9822692871093750,0.5697240829467773,0
0.9746068954467773,0.5779203414916992,0
0.9582687377929687,0.5779203414916992,0
0.9601976394653320,0.5594736099243164,0
0.9956937789916992,0.5594736099243164,0
0.9776309967041015,0.5728534698486328,0
0.9561109542846680,0.5728534698486328,0
0.9623554229736327,0.5783632278442382,0
0.9636863708496093,0.5783632278442382,0
0.9753730773925781,0.5661043167114258,0
0.9770742416381836,0.5661043167114258,0
0.9659597396850585,0.5680051803588867,0
0.9455125808715820,0.5680051803588867,0
0.9432477951049805,0.5412300109863281,0
0.9744169235229492,0.5412300109863281,0
0.9524139404296874,0.5468072891235352,0
0.9272769927978515,0.5468072891235352,0
0.9306375503540039,0.5465034484863281,0
0.9295904159545898,0.5465034484863281,0
0.9401390075683593,0.5316484451293945,0
0.9417114257812500,0.5316484451293945,0
0.9320652008056640,0.5361951828002930,0
0.9312217712402343,0.5361951828002930,0
0.9147851943969726,0.5152421951293945,0
0.9493234634399413,0.5152421951293945,0
0.9307989120483398,0.5279365539550781,0
0.9094139099121094,0.5279365539550781,0
0.9190715789794921,0.5345489501953125,0
0.9269302368164062,0.5345489501953125,0
0.9324892044067382,0.5257587432861328,0
0.9369855880737304,0.5257587432861328,0
0.9297752380371094,0.5347852706909180,0
0.9138113021850586,0.5347852706909180,0
0.9164760589599609,0.5172512054443359,0
0.9523984909057617,0.5172512054443359,0
0.9347259521484375,0.5316558837890625,0
0.9140213012695312,0.5316558837890625,0
0.9213375091552733,0.5390825271606445,0
0.9240926742553710,0.5390825271606445,0
0.9319152832031250,0.5364274978637695,0
0.9237361907958984,0.5242418289184571,0
0.9414093017578125,0.5242418289184571,0
0.9354623794555663,0.5348110198974609,0
0.9205141067504883,0.5348110198974609,0
0.9309185028076171,0.5300886154174804,0
0.9190177917480469,0.5300886154174804,0
0.9339757919311523,0.5209121704101562,0
0.9576135635375976,0.5209121704101562,0
0.9351631164550781,0.5395723342895508,0
0.9185462951660156,0.5395723342895508,0
0.9274641036987304,0.5280910491943359,0
0.9455972671508789,0.5280910491943359,0
0.9402917861938476,0.5398984909057617,0
0.9259666442871093,0.5398984909057617,0
0.9369867324829101,0.5366363525390625,0
0.9258110046386718,0.5366363525390625,0
0.9412685394287109,0.5285797119140625,0
0.9654047012329101,0.5285797119140625,0
0.9431940078735351,0.5478452682495117,0
0.9267814636230468,0.5478452682495117,0
0.9357152938842773,0.5362970352172851,0
0.9538204193115234,0.5362970352172851,0
0.9481458663940430,0.5473291397094726,0
0.9333486557006836,0.5473291397094726,0
0.9437833786010742,0.5428956985473633,0
0.9320062637329101,0.5428956985473633,0
0.9468257904052734,0.5335699081420898,0
0.9703474044799805,0.5335699081420898,0
0.9308052062988281,0.5324346542358398,0
0.9532613754272461,0.5456033706665039,0
0.9501491546630859,0.5541578292846679,0
0.9338378906250000,0.5541578292846679,0
0.9359098434448242,0.5359331130981445,0
0.9716011047363281,0.5359331130981445,0
0.9537179946899413,0.5499280929565430,0
0.9328290939331054,0.5499280929565430,0
0.9399850845336913,0.5569610595703125,0
0.9503717422485352,0.5569610595703125,0
0.9559198379516601,0.5480020523071288,0
0.9601387023925780,0.5480020523071288,0
0.9528522491455078,0.5566646575927734,0
0.9366016387939453,0.5566646575927734,0
0.9389322280883788,0.5387363433837891,0
0.9746921539306640,0.5387363433837891,0
0.9567964553833007,0.5528554916381836,0
0.9358818054199218,0.5528554916381836,0
0.9431436538696288,0.5602209091186523,0
0.9458072662353515,0.5602209091186523,0
0.9593536376953125,0.5515480041503906,0
0.9636829376220702,0.5515480041503906,0
0.9564605712890625,0.5603502273559570,0
0.9404067993164062,0.5603502273559570,0
0.9429439544677733,0.5425724029541016,0
0.9786581039428710,0.5425724029541016,0
0.9608390808105468,0.5567161560058593,0
0.9398963928222656,0.5567161560058593,0
0.9472131729125977,0.5639677047729492,0
0.9499408721923828,0.5639677047729492,0
0.9633602142333983,0.5552146911621093,0
0.9676122665405273,0.5552146911621093,0
0.9603698730468749,0.5638624191284179,0
0.9441667556762695,0.5638624191284179,0
0.9465476989746093,0.5459197998046875,0
0.9821439743041992,0.5459197998046875,0
0.9641029357910156,0.5598421096801758,0
0.9429719924926757,0.5598421096801758,0
0.9503173828125000,0.5667263031005859,0
0.9527372360229491,0.5667263031005859,0
0.9659992218017578,0.5576419830322266,0
0.9699142456054687,0.5576419830322266,0
0.9625190734863280,0.5658966064453125,0
0.9461414337158203,0.5658966064453125,0
0.9482746124267578,0.5475202560424804,0
0.9837341308593750,0.5475202560424804,0
0.9655025482177734,0.5610071182250976,0
0.9443258285522460,0.5610071182250976,0
0.9513359069824219,0.5675800323486327,0
0.9536968231201172,0.5675800323486327,0
0.9668140411376953,0.5581741333007812,0
0.9707221984863281,0.5581741333007812,0
0.9631605148315430,0.5664133071899414,0
0.9467061996459960,0.5664133071899414,0
0.9486906051635742,0.5478784561157226,0
0.9840448379516601,0.5478784561157226,0
0.9658510208129882,0.5612199783325195,0
0.9446393966674804,0.5612199783325195,0
0.9517507553100586,0.5678134918212890,0
0.9541110992431641,0.5678134918212890,0
0.9673067092895508,0.5586101531982421,0
0.9712772369384766,0.5586101531982421,0
0.9639495849609374,0.5669912338256836,0
0.9475719451904296,0.5669912338256836,0
0.9497554779052734,0.5486474990844726,0
0.9851669311523437,0.5486474990844726,0
0.9670835494995117,0.5622407913208007,0
0.9459159851074218,0.5622407913208007,0
0.9530342102050781,0.5689470291137695,0
0.9554340362548828,0.5689470291137695,0
0.9685312271118164,0.5598478317260742,0
0.9725440979003905,0.5598478317260742,0
0.9652307510375976,0.5681327819824219,0
0.9487598419189452,0.5681327819824219,0
0.9508655548095702,0.5497140884399414,0
0.9863748550415039,0.5497140884399414,0
0.9683252334594726,0.5634521484375000,0
0.9472463607788085,0.5634521484375000,0
0.9544675827026367,0.5704496383666992,0
0.9570110321044921,0.5704496383666992,0
0.9703159332275391,0.5616176605224609,0
0.9744655609130859,0.5616176605224609,0
0.9672677993774413,0.5702087402343750,0
0.9510034561157226,0.5702087402343750,0
0.9534639358520507,0.5521802902221680,0
0.9890768051147460,0.5521802902221680,0
0.9711067199707031,0.5663000106811523,0
0.9501205444335937,0.5663000106811523,0
0.9574813842773438,0.5734245300292968,0
0.9601547241210937,0.5734245300292968,0
0.9734870910644531,0.5646194458007813,0
0.9775960922241210,0.5646194458007813,0
0.9703714370727539,0.5730073928833007,0
0.9539039611816406,0.5730073928833007,0
0.9558958053588866,0.5542293548583984,0
0.9908597946166992,0.5542293548583984,0
0.9719198226928710,0.5661146163940429,0
0.9491226196289062,0.5661146163940429,0
0.9538707733154297,0.5683656692504883,0
0.9530982971191406,0.5683656692504883,0
0.9622478485107422,0.5517820358276367,0
0.9618627548217773,0.5517820358276367,0
0.9505353927612304,0.5519588470458984,0
0.9297998428344726,0.5519588470458984,0
0.9282125473022460,0.5257495880126953,0
0.9596420288085937,0.5257495880126953,0
0.9382535934448242,0.5330211639404296,0
0.9139972686767578,0.5330211639404296,0
0.9186853408813476,0.5349557876586913,0
0.9190223693847656,0.5349557876586913,0
0.9304721832275390,0.5225996017456055,0
0.9332107543945312,0.5225996017456055,0
0.9254041671752929,0.5296915054321288,0
0.9085206985473633,0.5296915054321288,0
0.9108283996582031,0.5111400604248046,0
0.9463205337524414,0.5111400604248046,0
0.9284076690673828,0.5251161575317382,0
0.9075948715209960,0.5251161575317382,0
0.9153339385986328,0.5327745437622070,0
0.9184043884277343,0.5327745437622070,0
0.9320274353027344,0.5247396469116211,0
0.9366479873657226,0.5247396469116211,0
0.9299652099609375,0.5341558456420898,0
0.9139268875122070,0.5341558456420898,0
0.9167644500732421,0.5168094635009766,0
0.9527011871337890,0.5168094635009766,0
0.9348524093627929,0.5311134338378906,0
0.9139194488525391,0.5311134338378906,0
0.9214450836181640,0.5383935928344726,0
0.9242551803588867,0.5383935928344726,0
0.9374467849731445,0.5296325683593750,0
0.9416084289550781,0.5296325683593750,0
0.9346687316894531,0.5383289337158202,0
0.9182373046875000,0.5383289337158202,0
0.9209478378295898,0.5203645706176757,0
0.9565349578857422,0.5203645706176757,0
0.9386249542236328,0.5346565246582031,0
0.9178356170654296,0.5346565246582031,0
0.9256570816040038,0.5424871444702148,0
0.9287824630737305,0.5424871444702148,0
0.9425296783447266,0.5348945617675781,0
0.9472583770751952,0.5348945617675781,0
0.9408628463745117,0.5448566436767578,0
0.9251140594482421,0.5448566436767578,0
0.9281433105468749,0.5278255462646484,0
0.9642889022827148,0.5278255462646484,0
0.9466844558715820,0.5427274703979492,0
0.9259368896484375,0.5427274703979492,0
0.9337497711181640,0.5504631042480469,0
0.9368556976318358,0.5504631042480469,0
0.9503391265869140,0.5421695709228516,0
0.9545980453491211,0.5421695709228516,0
0.9479679107666015,0.5513872146606446,0
0.9316629409790038,0.5513872146606446,0
0.9344078063964844,0.5334228515625000,0
0.9699554443359375,0.5334228515625000,0
0.9519710540771484,0.5473526000976562,0
0.9308904647827148,0.5473526000976562,0
0.9383022308349609,0.5545148849487305,0
0.9411563873291016,0.5545148849487305,0
0.9542970657348633,0.5457389831542968,0
0.9583208084106445,0.5457389831542968,0
0.9515705108642578,0.5546070098876953,0
0.9351860046386719,0.5546070098876953,0
0.9377065658569336,0.5364887237548828,0
0.9732484817504883,0.5364887237548828,0
0.9550964355468750,0.5503177642822266,0
0.9340066909790039,0.5503177642822266,0
0.9414201736450195,0.5575132369995117,0
0.9441776275634766,0.5575132369995117,0
0.9573961257934570,0.5489032745361327,0
0.9614959716796875,0.5489032745361327,0
0.9548452377319335,0.5577157974243164,0
0.9383703231811523,0.5577157974243164,0
0.9766960144042969,0.5396759033203125,0
0.9506183624267578,0.5489622116088867,0
0.9539548873901367,0.5395236968994140,0
0.9448631286621093,0.5740270614624023,0
0.9610479354858398,0.5583709716796875,0
0.9658807754516601,0.5461326599121094,0
0.9584569931030273,0.5613309860229492,0
0.9448345184326171,0.5433506011962891,0
0.9544012069702148,0.5554664611816406,0
0.9578166961669922,0.5499898910522460,0
0.9813463211059570,0.5432601928710937,0
0.9422498703002929,0.5620651245117188,0
0.9514572143554687,0.5497615814208984,0
0.9623531341552733,0.5494594573974609,0
0.9485910415649413,0.5468502044677734,0
0.9580175399780273,0.5468502044677734,0
0.9612911224365234,0.5531129837036133,0
0.9847080230712890,0.5463632583618164,0
0.9622438430786132,0.5649284362792969,0
0.9543806076049804,0.5525178909301758,0
0.9652130126953125,0.5525178909301758,0
0.9513021469116211,0.5746490478515625,0
0.9867061614990233,0.5493335723876953,0
0.9471525192260741,0.5630527496337890,0
0.9637773513793945,0.5485593795776367,0
0.9646602630615234,0.5671955108642578,0
0.9703565597534179,0.5476032257080078,0
0.9674623489379882,0.5543649673461913,0
0.9506824493408202,0.5697727203369141,0
0.9626935958862304,0.5631288528442383,0
0.9511676788330078,0.5604434967041015,0
0.9658481597900390,0.5503864288330078,0
0.9566368103027343,0.5689807891845703,0
0.9723941802978515,0.5689807891845703,0
0.9695125579833984,0.5561027526855469,0
0.9695125579833984,0.5714904785156250,0
0.9908243179321289,0.5530632019042968,0
0.9645921707153320,0.5622098922729492,0
0.9677249908447265,0.5588813781738281,0
0.9684225082397461,0.5734565734863281,0
0.9684225082397461,0.5706029891967773,0
0.9787479400634765,0.5579498291015624,0
0.9711885452270508,0.5728918075561523,0
0.9570602416992187,0.5545051574707031,0
0.9739660263061523,0.5681024551391601,0
0.9599927902221679,0.5879905700683593,0
0.9626483917236328,0.5748235702514648,0
0.9793785095214843,0.5659194946289062,0
0.9619977951049804,0.5593133926391601,0
0.9731168746948242,0.5503955841064453,0
0.9580123901367187,0.5559803009033203,0
0.9676305770874023,0.5650869369506836,0
0.9707353591918945,0.5550081253051757,0
0.9614816665649414,0.5894994735717773,0
0.9771514892578125,0.5539426803588867,0
0.9808902740478516,0.5674169540405273,0
0.9575117111206054,0.5758901596069336,0
0.9747436523437499,0.5714881896972656,0
0.9689048767089843,0.5661289215087890,0
0.9764739990234375,0.5661289215087890,0
0.9609083175659179,0.5881427764892578,0
0.9609083175659179,0.5749992370605469,0
0.9729520797729492,0.5620342254638672,0
0.9563117980957031,0.5883876800537109,0
0.9591785430908203,0.5346570968627929,0
0.9394065856933593,0.5544651031494140,0
0.9291858673095703,0.5411579132080078,0
0.9486465454101562,0.5418851852416992,0
0.9276992797851562,0.5421226501464843,0
0.9347288131713867,0.5217893600463867,0
0.9221340179443359,0.5564220428466796,0
0.9386661529541015,0.5201007843017578,0
0.9140304565429687,0.5282398223876953,0
0.9146478652954101,0.5132303237915039,0
0.9302392959594726,0.5260082244873047,0
0.9088565826416015,0.5260082244873047,0
0.9194961547851562,0.5329553604125976,0
0.9266195297241211,0.5304531097412110,0
0.9197605133056640,0.5186376571655273,0
0.9309019088745116,0.5188711166381835,0
0.9180656433105469,0.5422330856323242,0
0.9540264129638671,0.5169456481933593,0
0.9360345840454101,0.5316267013549805,0
0.9319324493408203,0.5241903305053711,0
0.9336387634277343,0.5221138000488281,0
0.9170854568481445,0.5371404647827148,0
0.9454519271850585,0.5252099990844726,0
0.9378541946411132,0.5404695510864258,0
0.9242780685424804,0.5479373931884766,0
0.9600065231323242,0.5227037429809570,0
0.9207258224487305,0.5369556427001952,0
0.9372711181640625,0.5226734161376952,0
0.9390827178955078,0.5234373092651367,0
0.9440305709838867,0.5470642089843750,0
0.9409818649291992,0.5399871826171875,0
0.9367475509643555,0.5526117324829102,0
0.9471239089965819,0.5352756500244140,0
0.9400960922241210,0.5745168685913086,0
0.9587808609008789,0.5382076263427734,0
0.9367967605590820,0.5495063781738281,0
0.9375406265258789,0.5355400085449219,0
0.9544235229492187,0.5492202758789062,0
0.9499019622802733,0.5492202758789062,0
0.9507900238037109,0.5561044692993163,0
0.9507900238037109,0.5535226821899414,0
0.9432998657226562,0.5409519195556640,0
0.9541093826293945,0.5408575057983398,0
0.9401807785034180,0.5629554748535156,0
0.9754697799682617,0.5377704620361328,0
0.9355293273925781,0.5513265609741210,0
0.9521827697753906,0.5366512298583984,0
0.9528808593750000,0.5555019378662109,0
0.9588335037231445,0.5359159469604492,0
0.9563632965087890,0.5429677963256836,0
0.9563632965087890,0.5582633972167969,0
0.9425508499145507,0.5401468276977539,0
0.9514480590820312,0.5522975921630859,0
0.9551794052124023,0.5463186264038086,0
0.9785024642944335,0.5397050857543945,0
0.9395816802978515,0.5589254379272460,0
0.9624126434326171,0.5531238555908203,0
0.9601896286010742,0.5619678497314453,0
0.9608373641967773,0.5382139205932617,0
0.9551897048950195,0.5560134887695313,0
0.9440431594848633,0.5532400131225585,0
0.9820781707763672,0.5430971145629883,0
0.9498991012573241,0.5647516250610352,0
0.9658327102661133,0.5561908721923828,0
0.9524780273437500,0.5860914230346680,0
0.9638631820678710,0.5411842346191406,0
0.9487483978271484,0.5608818054199218,0
0.9470443725585938,0.5561353683471679,0
0.9664993286132812,0.5605293273925781,0
0.9527950286865234,0.5674203872680664,0
0.9627759933471679,0.5674203872680664,0
0.9552560806274414,0.5886096954345703,0
0.9739505767822265,0.5522701263427734,0
0.9514812469482421,0.5633531570434570,0
0.9523189544677734,0.5491819381713867,0
0.9690324783325195,0.5423097610473633,0
0.9476217269897460,0.5627866744995117,0
0.9581588745117187,0.5696205139160156,0
0.9650796890258788,0.5668876647949218,0
0.9574373245239257,0.5543025970458985,0
0.9683023452758789,0.5542293548583984,0
0.9543125152587890,0.5762351989746094,0
0.9895660400390625,0.5510570526123046,0
0.9708835601806640,0.5646160125732421,0
0.9569761276245117,0.5712993621826171,0
0.9669164657592773,0.5712993621826171,0
0.9593839645385742,0.5560094833374023,0
0.9702552795410155,0.5559053421020508,0
0.9552566528320312,0.5670106887817382,0
0.9531589508056640,0.5619644165039063,0
0.9726207733154296,0.5619644165039063,0
0.9678800582885742,0.5514993667602539,0
0.9908958435058594,0.5514993667602539,0
0.9685518264770507,0.5702590942382812,0
0.9515356063842773,0.5702590942382812,0
0.9610794067382812,0.5575160980224609,0
0.9797269821166992,0.5575160980224609,0
0.9721549987792968,0.5685487747192383,0
0.9570196151733398,0.5685487747192383,0
0.9663345336914062,0.5637187957763672,0
0.9550397872924804,0.5637187957763672,0
0.9696939468383788,0.5531026840209960,0
0.9927932739257812,0.5531026840209960,0
0.9704750061035156,0.5720775604248046,0
0.9534376144409179,0.5720775604248046,0
0.9629785537719726,0.5592779159545899,0
0.9817268371582031,0.5592779159545899,0
0.9741107940673828,0.5702997207641601,0
0.9588232040405273,0.5702997207641601,0
0.9676895141601562,0.5649839401245117,0
0.9561567306518555,0.5649839401245117,0
0.9702352523803710,0.5530672073364258,0
0.9922039031982421,0.5530672073364258,0
0.9686902999877929,0.5692657470703125,0
0.9495357513427733,0.5692657470703125,0
0.9561727523803710,0.5511308670043945,0
0.9709505081176757,0.5511308670043945,0
0.9592638015747070,0.5541532516479492,0
0.9396503448486327,0.5541532516479492,0
0.9447933197021484,0.5410057067871094,0
0.9295360565185546,0.5410057067871094,0
0.9407752990722655,0.5233554840087891,0
0.9602994918823242,0.5233554840087891,0
0.9352323532104492,0.5366632461547851,0
0.9156326293945312,0.5366632461547851,0
0.9232492446899414,0.5199354171752929,0
0.9401973724365233,0.5199354171752929,0
0.9311027526855469,0.5284698486328124,0
0.9147771835327148,0.5284698486328124,0
0.9232875823974609,0.5221017837524414,0
0.9116603851318359,0.5221017837524414,0
0.9262229919433593,0.5111366271972656,0
0.9493675231933594,0.5111366271972656,0
0.9273754119873047,0.5303798675537109,0
0.9107334136962890,0.5303798675537109,0
0.9207864761352539,0.5185604095458984,0
0.9400291442871094,0.5185604095458984,0
0.9329652786254883,0.5306196212768555,0
0.9183362960815429,0.5306196212768555,0
0.9280380249023437,0.5269237518310547,0
0.9174928665161133,0.5269237518310547,0
0.9327386856079101,0.5174880981445312,0
0.9563175201416015,0.5174880981445312,0
0.9345777511596679,0.5373001098632812,0
0.9180067062377929,0.5373001098632812,0
0.9279241561889648,0.5252935409545898,0
0.9469928741455078,0.5252935409545898,0
0.9395507812499999,0.5368829727172851,0
0.9246047973632812,0.5368829727172851,0
0.9339151382446289,0.5324867248535156,0
0.9230100631713867,0.5324867248535156,0
0.9378868103027344,0.5223855972290039,0
0.9613065719604492,0.5223855972290039,0
0.9396383285522460,0.5423126220703125,0
0.9232990264892578,0.5423126220703125,0
0.9334613800048828,0.5310590744018554,0
0.9531709671020507,0.5310590744018554,0
0.9461454391479491,0.5436864852905273,0
0.9317293167114258,0.5436864852905273,0
0.9415008544921875,0.5404163360595703,0
0.9310655593872070,0.5404163360595703,0
0.9463554382324219,0.5308141708374023,0
0.9698965072631835,0.5308141708374023,0
0.9482288360595703,0.5506038665771484,0
0.9315610885620117,0.5506038665771484,0
0.9413841247558593,0.5384571075439453,0
0.9605569839477539,0.5384571075439453,0
0.9530221939086914,0.5498971939086914,0
0.9379114151000976,0.5498971939086914,0
0.9470924377441405,0.5452337265014648,0
0.9360591888427734,0.5452337265014648,0
0.9507877349853515,0.5345735549926758,0
0.9737640380859375,0.5345735549926758,0
0.9516345977783203,0.5536491394042968,0
0.9346309661865234,0.5536491394042968,0
0.9443006515502930,0.5410131454467774,0
0.9631999969482421,0.5410131454467774,0
0.9555364608764648,0.5520967483520508,0
0.9401859283447265,0.5520967483520508,0
0.9492879867553711,0.5472427368164062,0
0.9380830764770507,0.5472427368164062,0
0.9529203414916991,0.5364309310913086,0
0.9758588790893554,0.5364309310913086,0
0.9536550521850585,0.5555505752563477,0
0.9597610473632812,0.5555505752563477,0
0.9465156555175781,0.5430490493774414,0
0.9576559066772461,0.5430490493774414,0
0.9579288482666015,0.5545309066772460,0
0.9427659988403320,0.5545309066772460,0
0.9520219802856444,0.5499406814575195,0
0.9410957336425780,0.5499406814575195,0
0.9559953689575195,0.5396753311157226,0
0.9791713714599609,0.5396753311157226,0
0.9571655273437499,0.5590084075927734,0
0.9404685974121093,0.5590084075927734,0
0.9504117965698242,0.5466974258422851,0
0.9694993972778320,0.5466974258422851,0
0.9619525909423827,0.5583818435668945,0
0.9468772888183593,0.5583818435668945,0
0.9560703277587890,0.5538986206054687,0
0.9452053070068359,0.5538986206054687,0
0.9600711822509765,0.5434072494506835,0
0.9831865310668945,0.5434072494506835,0
0.9611509323120117,0.5626773834228516,0
0.9442491531372070,0.5626773834228516,0
0.9540704727172851,0.5500997543334961,0
0.9732181549072265,0.5500997543334961,0
0.9653486251831054,0.5615489959716796,0
0.9500804901123047,0.5615489959716796,0
0.9591505050659179,0.5568397521972656,0
0.9482374191284180,0.5568397521972656,0
0.9628915786743164,0.5459918975830078,0
0.9859651565551757,0.5459918975830078,0
0.9638603210449218,0.5651733398437500,0
0.9469642639160156,0.5651733398437500,0
0.9566608428955078,0.5525510787963867,0
0.9756958007812500,0.5525510787963867,0
0.9678205490112304,0.5638309478759765,0
0.9526124954223633,0.5638309478759765,0
0.9615297317504883,0.5589952468872070,0
0.9504341125488280,0.5589952468872070,0
0.9653234481811523,0.5481307983398437,0
0.9881830215454102,0.5481307983398437,0
0.9660392761230469,0.5672573089599610,0
0.9491352081298827,0.5672573089599610,0
0.9588592529296874,0.5545497894287109,0
0.9779148101806641,0.5545497894287109,0
0.9699382781982422,0.5659154891967774,0
0.9546283721923827,0.5659154891967774,0
0.9636445999145508,0.5610082626342773,0
0.9526142120361327,0.5610082626342773,0
0.9674755096435547,0.5500436782836914,0
0.9903162002563476,0.5500436782836914,0
0.9681192398071289,0.5691799163818360,0
0.9510984420776367,0.5691799163818360,0
0.9608510971069335,0.5565090179443359,0
0.9799186706542968,0.5565090179443359,0
0.9718843460083008,0.5676486968994140,0
0.9566213607788085,0.5676486968994140,0
0.9655208587646484,0.5627317428588867,0
0.9544355392456054,0.5627317428588867,0
0.9690496444702148,0.5517951965332031,0
0.9919120788574218,0.5517951965332031,0
0.9697763442993164,0.5707820892333985,0
0.9527904510498046,0.5707820892333985,0
0.9625179290771484,0.5579515457153320,0
0.9815975189208984,0.5579515457153320,0
0.9735019683837890,0.5692279815673827,0
0.9581554412841796,0.5692279815673827,0
0.9670898437500000,0.5643413543701171,0
0.9560960769653319,0.5643413543701171,0
0.9707885742187500,0.5534030914306640,0
0.9936996459960937,0.5534030914306640,0
0.9715867996215820,0.5724815368652344,0
0.9545677185058593,0.5724815368652344,0
0.9643970489501953,0.5597734451293945,0
0.9835802078247070,0.5597734451293945,0
0.9753112792968750,0.5708415985107421,0
0.9598474502563477,0.5708415985107421,0
0.9685054779052734,0.5654371261596679,0
0.9570018768310546,0.5654371261596679,0
0.9708778381347656,0.5527158737182617,0
0.9923835754394531,0.5527158737182617,0
0.9684310913085937,0.5684497833251952,0
0.9488416671752929,0.5684497833251952,0
0.9552709579467773,0.5491292953491210,0
0.9702484130859375,0.5491292953491210,0
0.9577108383178711,0.5519027709960938,0
0.9378799438476562,0.5519027709960938,0
0.9427522659301757,0.5390356063842773,0
0.9279870986938477,0.5390356063842773,0
0.9391525268554687,0.5210414886474609,0
0.9588008880615234,0.5210414886474609,0
0.9341314315795898,0.5350547790527344,0
0.9148458480834960,0.5350547790527344,0
0.9229579925537109,0.5188310623168945,0
0.9406167984008789,0.5188310623168945,0
0.9312995910644530,0.5279520034790038,0
0.9151153564453125,0.5279520034790038,0
0.9234128952026367,0.5221664428710937,0
0.9122611999511718,0.5221664428710937,0
0.9269479751586913,0.5109071731567383,0
0.9500158309936523,0.5109071731567383,0
0.9281661987304687,0.5305812835693359,0
0.9115756988525390,0.5305812835693359,0
0.9221094131469726,0.5186988830566406,0
0.9419202804565430,0.5186988830566406,0
0.9341022491455078,0.5311454772949219,0
0.9193925857543945,0.5311454772949219,0
0.9285953521728515,0.5274702072143554,0
0.9378467559814453,0.5274702072143554,0
0.9335512161254882,0.5173107147216797,0
0.9568387985229492,0.5173107147216797,0
0.9352546691894531,0.5374099731445312,0
0.9186916351318359,0.5374099731445312,0
0.9291578292846679,0.5253410339355469,0
0.9405023574829101,0.5261095046997070,0
0.9406265258789062,0.5372749328613281,0
0.9254779815673828,0.5372749328613281,0
0.9343523025512694,0.5328157424926757,0
0.9237316131591796,0.5328157424926757,0
0.9620922088623046,0.5222843170166015,0
0.9303297042846679,0.5222843170166015,0
0.9469882965087890,0.5234928131103516,0
0.9509725570678711,0.5372840881347656,0
0.9465316772460937,0.5473508834838867,0
0.9300865173339843,0.5473508834838867,0
0.9341234207153319,0.5304107666015625,0
0.9699182510375977,0.5304107666015625,0
0.9512248992919922,0.5452268600463867,0
0.9302415847778320,0.5452268600463867,0
0.9385110855102539,0.5526317596435547,0
0.9424919128417968,0.5526317596435547,0
0.9551530838012695,0.5449556350708008,0
0.9586824417114257,0.5449556350708008,0
0.9539909362792969,0.5541870117187500,0
0.9370897293090820,0.5541870117187500,0
0.9405710220336914,0.5362524032592774,0
0.9757736206054687,0.5362524032592774,0
0.9565046310424804,0.5499349594116211,0
0.9349428176879883,0.5499349594116211,0
0.9427877426147461,0.5564340591430664,0
0.9462661743164062,0.5564340591430664,0
0.9585811614990234,0.5480684280395508,0
0.9618404388427734,0.5480684280395508,0
0.9568170547485351,0.5565410614013672,0
0.9395107269287108,0.5565410614013672,0
0.9427448272705078,0.5382688522338867,0
0.9779211044311523,0.5382688522338867,0
0.9584112167358398,0.5516876220703125,0
0.9368242263793944,0.5516876220703125,0
0.9446943283081054,0.5581283569335938,0
0.9482751846313476,0.5581283569335938,0
0.9605575561523437,0.5499847412109374,0
0.9638362884521484,0.5499847412109374,0
0.9590978622436523,0.5587451934814452,0
0.9419620513916015,0.5587451934814452,0
0.9454542160034179,0.5408346176147460,0
0.9806831359863281,0.5408346176147460,0
0.9615119934082030,0.5547460556030274,0
0.9401126861572265,0.5547460556030274,0
0.9480909347534179,0.5615707397460937,0
0.9518371582031250,0.5615707397460937,0
0.9643226623535156,0.5536886215209961,0
0.9676849365234375,0.5536886215209961,0
0.9631244659423828,0.5625909805297852,0
0.9460235595703125,0.5625909805297852,0
0.9495100021362304,0.5446352005004883,0
0.9846937179565429,0.5446352005004883,0
0.9653480529785156,0.5584007263183594,0
0.9438634872436523,0.5584007263183594,0
0.9518960952758788,0.5650377273559570,0
0.9556297302246093,0.5650377273559570,0
0.9677810668945312,0.5570154190063477,0
0.9711044311523437,0.5570154190063477,0
0.9664810180664062,0.5657627105712890,0
0.9492708206176758,0.5657627105712890,0
0.9526691436767578,0.5475774765014648,0
0.9877876281738280,0.5475774765014648,0
0.9683778762817382,0.5612257003784179,0
0.9467594146728515,0.5612257003784179,0
0.9546976089477539,0.5677442550659180,0
0.9584192276000976,0.5677442550659180,0
0.9704944610595703,0.5594747543334960,0
0.9735929489135742,0.5594747543334960,0
0.9690055847167969,0.5680400848388671,0
0.9517410278320312,0.5680400848388671,0
0.9550849914550781,0.5498176574707031,0
0.9901966094970702,0.5498176574707031,0
0.9706455230712890,0.5633285522460937,0
0.9488988876342773,0.5633285522460937,0
0.9569721221923828,0.5697320938110352,0
0.9605524063110351,0.5697320938110352,0
0.9726144790649414,0.5615135192871094,0
0.9757255554199218,0.5615135192871094,0
0.9710855484008789,0.5700113296508789,0
0.9537448883056641,0.5700113296508789,0
0.9571060180664062,0.5517356872558593,0
0.9922124862670898,0.5517356872558593,0
0.9725704193115234,0.5651985168457031,0
0.9509422302246093,0.5651985168457031,0
0.9588850021362304,0.5714647293090820,0
0.9625488281250000,0.5714647293090820,0
0.9745599746704101,0.5633359909057617,0
0.9775474548339843,0.5633359909057617,0
0.9729835510253906,0.5716964721679687,0
0.9556360244750977,0.5716964721679687,0
0.9590475082397460,0.5533996582031250,0
0.9939857482910156,0.5533996582031250,0
0.9742595672607421,0.5668184280395507,0
0.9526473999023437,0.5668184280395507,0
0.9603618621826171,0.5730360031127929,0
0.9641778945922851,0.5730360031127929,0
0.9761987686157226,0.5647413253784179,0
0.9792131423950194,0.5647413253784179,0
0.9746189117431641,0.5731698989868164,0
0.9572399139404296,0.5731698989868164,0
0.9606674194335937,0.5549371719360351,0
0.9956291198730468,0.5549371719360351,0
0.9758789062500000,0.5683828353881836,0
0.9540584564208984,0.5683828353881836,0
0.9620241165161132,0.5744642257690430,0
0.9656976699829101,0.5744642257690430,0
0.9776023864746093,0.5660791397094727,0
0.9805103302001953,0.5660791397094727,0
0.9759984970092773,0.5745637893676757,0
0.9586229324340820,0.5745637893676757,0
0.9619926452636718,0.5561668395996093,0
0.9968267440795898,0.5561668395996093,0
0.9771057128906250,0.5695598602294921,0
0.9553190231323242,0.5695598602294921,0
0.9633356094360351,0.5756521224975586,0
0.9670349121093750,0.5756521224975586,0
0.9790409088134765,0.5674564361572265,0
0.9819849014282226,0.5674564361572265,0
0.9776258468627930,0.5759496688842773,0
0.9601764678955078,0.5759496688842773,0
0.9636074066162109,0.5576763153076172,0
0.9984992980957030,0.5576763153076172,0
0.9786741256713867,0.5710390090942382,0
0.9567970275878905,0.5710390090942382,0
0.9645332336425780,0.5766757965087891,0
0.9678709030151367,0.5766757965087891,0
0.9790357589721679,0.5671503067016601,0
0.9808902740478516,0.5671503067016601,0
0.9749513626098633,0.5724534988403320,0
0.9552103042602539,0.5724534988403320,0
0.9557178497314452,0.5482961654663085,0
0.9864967346191406,0.5482961654663085,0
0.9622095108032226,0.5530248641967773,0
0.9359596252441406,0.5530248641967773,0
0.9398002624511719,0.5507646560668945,0
0.9394741058349609,0.5507646560668945,0
0.9479347229003906,0.5356138229370117,0
0.9474655151367187,0.5356138229370117,0
0.9406145095825195,0.5386442184448242,0
0.9207103729248046,0.5386442184448242,0
0.9222610473632812,0.5167081832885742,0
0.9555707931518554,0.5167081832885742,0
0.9344959259033203,0.5277614593505859,0
0.9118577957153320,0.5277614593505859,0
0.9193090438842773,0.5327596664428711,0
0.9226570129394531,0.5327596664428711,0
0.9345548629760742,0.5244976043701172,0
0.9375726699829101,0.5244976043701172,0
0.9336421966552734,0.5331172943115234,0
0.9165115356445312,0.5331172943115234,0
0.9204236984252929,0.5158126831054687,0
0.9557962417602539,0.5158126831054687,0
0.9365243911743164,0.5301527023315430,0
0.9152910232543945,0.5301527023315430,0
0.9238929748535156,0.5373069763183593,0
0.9282417297363281,0.5373069763183593,0
0.9406202316284179,0.5302551269531249,0
0.9439470291137695,0.5302551269531249,0
0.9402116775512694,0.5394327163696289,0
0.9230237960815429,0.5394327163696289,0
0.9267745971679687,0.5216308593750000,0
0.9618553161621093,0.5216308593750000,0
0.9421892166137695,0.5352247238159179,0
0.9203710556030273,0.5352247238159179,0
0.9284952163696288,0.5415075302124023,0
0.9323987960815430,0.5415075302124023,0
0.9444980621337891,0.5337799072265624,0
0.9476331710815429,0.5337799072265624,0
0.9437725067138671,0.5430067062377929,0
0.9269262313842773,0.5430067062377929,0
0.9310020446777343,0.5261272430419922,0
0.9666292190551757,0.5261272430419922,0
0.9475713729858398,0.5411178588867187,0
0.9265857696533203,0.5411178588867187,0
0.9353067398071289,0.5487419128417969,0
0.9398609161376953,0.5487419128417969,0
0.9524517059326172,0.5419950485229492,0
0.9558391571044922,0.5419950485229492,0
0.9520631790161133,0.5512207031249999,0
0.9350103378295898,0.5512207031249999,0
0.9387920379638671,0.5335830688476563,0
0.9738567352294921,0.5335830688476563,0
0.9541025161743164,0.5472101211547852,0
0.9324937820434570,0.5472101211547852,0
0.9404342651367187,0.5533367156982422,0
0.9442754745483398,0.5533367156982422,0
0.9562534332275390,0.5454786300659179,0
0.9591814041137695,0.5454786300659179,0
0.9550706863403320,0.5539787292480468,0
0.9377660751342773,0.5539787292480468,0
0.9414985656738281,0.5359571456909179,0
0.9765306472778320,0.5359571456909179,0
0.9567077636718749,0.5495647430419922,0
0.9350801467895508,0.5495647430419922,0
0.9431533813476562,0.5559368133544922,0
0.9471576690673827,0.5559368133544922,0
0.9591567993164062,0.5481416702270507,0
0.9622203826904296,0.5481416702270507,0
0.9583700180053710,0.5567665100097656,0
0.9409303665161133,0.5567665100097656,0
0.9446926116943359,0.5390630722045898,0
0.9797676086425781,0.5390630722045898,0
0.9601009368896484,0.5528480529785156,0
0.9386003494262695,0.5528480529785156,0
0.9468412399291992,0.5593048095703125,0
0.9508197784423827,0.5593048095703125,0
0.9629945755004883,0.5516366958618164,0
0.9660552978515624,0.5516366958618164,0
0.9621099472045898,0.5606334686279296,0
0.9449031829833984,0.5606334686279296,0
0.9486745834350585,0.5428419113159180,0
0.9838960647583007,0.5428419113159180,0
0.9642974853515625,0.5566698074340820,0
0.9426103591918945,0.5566698074340820,0
0.9508443832397461,0.5630847930908203,0
0.9548624038696288,0.5630847930908203,0
0.9669639587402343,0.5552101135253906,0
0.9698719024658202,0.5552101135253906,0
0.9658578872680663,0.5640455245971679,0
0.9484886169433593,0.5640455245971679,0
0.9872537612915039,0.5459592819213867,0
0.9582269668579101,0.5559064865112304,0
0.9628086090087891,0.5438489913940430,0
0.9537380218505859,0.5795465469360351,0
0.9696590423583984,0.5578393936157227,0
0.9570522308349609,0.5578393936157227,0
0.9679590225219726,0.5429494857788085,0
0.9523916244506836,0.5626373291015625,0
0.9699308395385742,0.5581501007080077,0
0.9699308395385742,0.5617738723754883,0
0.9562505722045898,0.5679536819458008,0
0.9657932281494140,0.5657438278198242,0
0.9594177246093749,0.5890657424926757,0
0.9534519195556640,0.5686380386352539,0
0.9704040527343749,0.5649175643920898,0
0.9630180358886719,0.5602352142333984,0
0.9721790313720703,0.5443811416625977,0
0.9584358215332031,0.5838363647460937,0
0.9622856140136719,0.5700656890869140,0
0.9614490509033202,0.5619209289550781,0
0.9614490509033202,0.5547597885131835,0
0.9722991943359375,0.5665798187255859,0
0.9649749755859375,0.5643808364868164,0
0.9543863296508789,0.5618328094482422,0
0.9916631698608398,0.5497529983520507,0
0.9601209640502929,0.5716232299804688,0
0.9758491516113281,0.5634349822998047,0
0.9631147384643555,0.5563465118408203,0
0.9739110946655273,0.5483905792236328,0
0.9955970764160156,0.5535610198974609,0
0.9665393829345703,0.5634504318237304,0
0.9708738327026367,0.5512813568115235,0
0.9713544845581055,0.5558326721191406,0
0.9542369842529297,0.5709560394287109,0
0.9848939895629882,0.5578056335449219,0
0.9761615753173828,0.5734920501708984,0
0.9620550155639648,0.5550458908081054,0
0.9681827545166015,0.5648723602294922,0
0.9724411010742187,0.5589122772216797,0
0.9671682357788085,0.5746770858764648,0
0.9729406356811523,0.5723831176757812,0
0.9662887573242187,0.5593832015991210,0
0.9777093887329101,0.5603353500366210,0
0.9637372970581054,0.5566949844360352,0
0.9699085235595702,0.5566949844360352,0
0.9742910385131835,0.5605888366699219,0
0.9967958450317382,0.5543844223022460,0
0.9576026916503906,0.5741008758544922,0
0.9808994293212890,0.5682838439941406,0
0.9794803619384765,0.5767330169677735,0
0.9619308471679687,0.5728574752807617,0
0.9653966903686523,0.5582662582397461,0
0.9802373886108398,0.5712524414062500,0
0.9751195907592773,0.5611570358276367,0
0.9739351272583008,0.5727350234985351,0
0.9553075790405273,0.5727350234985351,0
0.9814344406127929,0.5560844421386718,0
0.9727947235107421,0.5687284469604492,0
0.9514543533325195,0.5427389144897461,0
0.9534278869628906,0.5427389144897461,0
0.9501508712768554,0.5353214263916015,0
0.9692710876464843,0.5292692184448242,0
0.9476148605346679,0.5347011566162109,0
0.9508209228515625,0.5346261978149414,0
0.9398586273193359,0.5319648742675781,0
0.9299715042114257,0.5384101867675781,0
0.9357044219970703,0.5364320755004882,0
0.9301603317260742,0.5244855880737305,0
0.9421863555908203,0.5260705947875977,0
0.9294187545776367,0.5484111785888671,0
0.9652736663818359,0.5238086700439453,0
0.9461849212646484,0.5387300491333008,0
0.9420913696289062,0.5299049377441406,0
0.9439035415649414,0.5293767929077148,0
0.9272809982299804,0.5444629669189452,0
0.9588111877441405,0.5323522567749023,0
0.9501388549804687,0.5484695434570312,0
0.9434835433959960,0.5434438705444335,0
0.9331323623657226,0.5449441909790039,0
0.9485349655151367,0.5295639038085938,0
0.9497583389282226,0.5501564025878906,0
0.9566093444824219,0.5501564025878906,0
0.9563438415527343,0.5397966384887695,0
0.9563438415527343,0.5545412063598633,0
0.9436197280883789,0.5374357223510742,0
0.9504077911376952,0.5503017425537109,0
0.9556114196777343,0.5428630828857421,0
0.9786363601684570,0.5366781234741210,0
0.9400760650634765,0.5569553375244141,0
0.9634122848510742,0.5513471603393555,0
0.9623960494995116,0.5601625442504883,0
0.9619085311889648,0.5367101669311524,0
0.9550695419311523,0.5420660018920899,0
0.9550695419311523,0.5518501281738281,0
0.9592466354370117,0.5400260925292969,0
0.9502601623535156,0.5756681442260742,0
0.9660793304443359,0.5397531509399414,0
0.9692224502563476,0.5537784576416015,0
0.9472892761230468,0.5624868392944335,0
0.9643054962158203,0.5585592269897460,0
0.9573961257934570,0.5539867401123046,0
0.9663917541503906,0.5539867401123046,0
0.9846347808837890,0.5422988891601562,0
0.9528825759887695,0.5643539428710938,0
0.9688505172729491,0.5563184738159179,0
0.9561241149902343,0.5856210708618164,0
0.9672929763793945,0.5416036605834961,0
0.9518388748168944,0.5470064163208007,0
0.9603761672973632,0.5568557739257812,0
0.9646167755126953,0.5450340270996094,0
0.9557149887084960,0.5450340270996094,0
0.9715742111206054,0.5589088439941406,0
0.9587471008300781,0.5880580902099609,0
0.9696138381958007,0.5675703048706054,0
0.9912631988525390,0.5490612030029297,0
0.9625019073486327,0.5589454650878906,0
0.9666772842407226,0.5469961166381836,0
0.9576290130615234,0.5469961166381836,0
0.9500072479248046,0.5666839599609375,0
0.9734115600585938,0.5607845306396484,0
0.9719999313354492,0.5694688796997071,0
0.9715152740478515,0.5458208084106445,0
0.9644748687744140,0.5633760452270508,0
0.9538043975830077,0.5609052658081054,0
0.9916391372680664,0.5491247177124023,0
0.9599441528320312,0.5711963653564452,0
0.9757827758789062,0.5629451751708984,0
0.9629722595214844,0.5629451751708984,0
0.9739665985107422,0.5716060638427735,0
0.9739665985107422,0.5677236557006836,0
0.9669811248779296,0.5629926681518554,0
0.9760019302368164,0.5470006942749023,0
0.9621854782104492,0.5869400024414062,0
0.9658435821533202,0.5732042312622070,0
0.9810613632202148,0.5648477554321288,0
0.9650373458862305,0.5577781677246093,0
0.9758749008178711,0.5694768905639648,0
0.9622724533081054,0.5694768905639648,0
0.9775697708129882,0.5645530700683593,0
0.9775697708129882,0.5684000015258789,0
0.9634895324707031,0.5744390487670898,0
0.9730287551879883,0.5568763732910156,0
0.9660066604614257,0.5951236724853516,0
0.9857746124267578,0.5588619232177734,0
0.9612070083618164,0.5703495025634765,0
0.9631095886230469,0.5557914733886719,0
0.9783628463745117,0.5494457244873047,0
0.9734807968139648,0.5890405654907226,0
0.9679779052734374,0.5753871917724609,0
0.9831087112426757,0.5669431686401367,0
0.9670715332031250,0.5599119186401367,0
0.9778198242187499,0.5715230941772461,0
0.9707822799682617,0.5665952682495117,0
0.9796216964721679,0.5665952682495117,0
0.9748563766479492,0.5548290252685547,0
0.9974699020385742,0.5548290252685547,0
0.9753318786621094,0.5744630813598632,0
0.9582933425903319,0.5744630813598632,0
0.9687526702880859,0.5614660263061523,0
0.9885246276855468,0.5614660263061523,0
0.9795656204223633,0.5731492996215820,0
0.9641046524047852,0.5731492996215820,0
0.9724771499633789,0.5682712554931640,0
0.9617568969726562,0.5682712554931640,0
0.9766233444213867,0.5564146041870117,0
0.9991447448730468,0.5564146041870117,0
0.9769632339477539,0.5758249282836914,0
0.9597599029541015,0.5758249282836914,0
0.9699090957641601,0.5622556686401367,0
0.9893188476562500,0.5622556686401367,0
0.9798059463500977,0.5727870941162109,0
0.9632400512695312,0.5727870941162109,0
0.9703359603881836,0.5653284072875976,0
0.9576862335205077,0.5653284072875976,0
0.9702541351318359,0.5491058349609375,0
0.9897474288940429,0.5491058349609375,0
0.9641269683837890,0.5618579864501952,0
0.9431556701660155,0.5618579864501952,0
0.9501583099365234,0.5416254043579102,0
0.9665977478027343,0.5416254043579102,0
0.9548011779785156,0.5476026535034180,0
0.9366193771362304,0.5476026535034180,0
0.9426240921020508,0.5383306503295898,0
0.9299045562744140,0.5383306503295898,0
0.9430738449096679,0.5233709335327148,0
0.9645086288452148,0.5233709335327148,0
0.9416404724121094,0.5412992477416992,0
0.9241258621215820,0.5412992477416992,0
0.9344181060791015,0.5278495788574219,0
0.9543525695800781,0.5278495788574219,0
0.9455034255981445,0.5400278091430664,0
0.9304985046386718,0.5400278091430664,0
0.9393465042114257,0.5363290786743163,0
0.9292539596557616,0.5363290786743163,0
0.9447481155395507,0.5259492874145507,0
0.9681592941284179,0.5259492874145507,0
0.9469270706176758,0.5470413208007813,0
0.9307628631591797,0.5470413208007813,0
0.9419202804565430,0.5358524322509766,0
0.9625053405761719,0.5358524322509766,0
0.9543216705322265,0.5490674972534180,0
0.9396989822387695,0.5490674972534180,0
0.9486763000488281,0.5456462860107422,0
0.9385848999023437,0.5456462860107422,0
0.9539783477783202,0.5349094390869140,0
0.9770559310913085,0.5349094390869140,0
0.9555112838745117,0.5554206848144531,0
0.9389110565185547,0.5554206848144531,0
0.9498641967773437,0.5433511734008789,0
0.9701156616210938,0.5433511734008789,0
0.9616127014160156,0.5560317993164062,0
0.9467187881469726,0.5560317993164062,0
0.9556011199951171,0.5523061752319336,0
0.9455183029174804,0.5523061752319336,0
0.9608076095581054,0.5417158126831054,0
0.9839515686035156,0.5417158126831054,0
0.9624647140502929,0.5622224807739258,0
0.9460166931152343,0.5622224807739258,0
0.9567432403564453,0.5499784469604492,0
0.9768791198730469,0.5499784469604492,0
0.9681043624877930,0.5620525360107421,0
0.9528751373291016,0.5620525360107421,0
0.9613054275512695,0.5574623107910156,0
0.9507825851440429,0.5574623107910156,0
0.9655111312866210,0.5456388473510742,0
0.9880004882812500,0.5456388473510742,0
0.9659534454345703,0.5651533126831054,0
0.9488456726074218,0.5651533126831054,0
0.9592311859130859,0.5520143508911133,0
0.9788497924804687,0.5520143508911133,0
0.9697294235229492,0.5633800506591796,0
0.9542186737060546,0.5633800506591796,0
0.9624000549316406,0.5583692550659179,0
0.9516008377075195,0.5583692550659179,0
0.9662950515747070,0.5463169097900390,0
0.9887271881103515,0.5463169097900390,0
0.9666412353515624,0.5657386779785156,0
0.9495735168457031,0.5657386779785156,0
0.9599189758300781,0.5526826858520507,0
0.9798694610595703,0.5526826858520507,0
0.9707571029663086,0.5644477844238281,0
0.9552715301513671,0.5644477844238281,0
0.9636240005493164,0.5596807479858398,0
0.9530256271362304,0.5596807479858398,0
0.9680065155029296,0.5478384017944335,0
0.9905387878417968,0.5478384017944335,0
0.9684419631958008,0.5675474166870117,0
0.9514629364013671,0.5675474166870117,0
0.9620252609252929,0.5546361923217773,0
0.9820123672485351,0.5546361923217773,0
0.9730579376220703,0.5664819717407227,0
0.9576044082641602,0.5664819717407227,0
0.9660020828247070,0.5617979049682617,0
0.9554220199584961,0.5617979049682617,0
0.9702135086059570,0.5500631332397461,0
0.9929185867309570,0.5500631332397461,0
0.9709465026855468,0.5697824478149414,0
0.9539766311645508,0.5697824478149414,0
0.9646213531494140,0.5568815231323242,0
0.9845535278320312,0.5568815231323242,0
0.9755069732666015,0.5687324523925781,0
0.9600757598876952,0.5687324523925781,0
0.9683670043945312,0.5639402389526367,0
0.9576919555664062,0.5639402389526367,0
0.9725292205810546,0.5520566940307617,0
0.9951496124267578,0.5520566940307617,0
0.9730894088745117,0.5716512680053710,0
0.9560651779174805,0.5716512680053710,0
0.9665485382080078,0.5585374832153320,0
0.9865882873535156,0.5585374832153320,0
0.9773946762084961,0.5703105926513672,0
0.9618438720703124,0.5703105926513672,0
0.9699457168579101,0.5654022216796875,0
0.9592838287353516,0.5654022216796875,0
0.9738882064819335,0.5532789230346680,0
0.9964633941650390,0.5532789230346680,0
0.9743059158325195,0.5726972579956054,0
0.9571386337280273,0.5726972579956054,0
0.9675424575805663,0.5595525741577149,0
0.9874608993530273,0.5595525741577149,0
0.9781929016113281,0.5712444305419921,0
0.9625476837158202,0.5712444305419921,0
0.9797979354858398,0.5502599716186524,0
0.9797979354858398,0.5699226379394531,0
0.9656908035278320,0.5759782791137695,0
0.9692264556884765,0.5759782791137695,0
0.9812896728515624,0.5675394058227539,0
0.9842290878295898,0.5675394058227539,0
0.9796657562255859,0.5759370803833007,0
0.9620018005371094,0.5759370803833007,0
0.9654647827148437,0.5574153900146485,0
1.0006456375122070,0.5574153900146485,0
0.9807872772216797,0.5709251403808594,0
0.9589742660522460,0.5709251403808594,0
0.9670469284057617,0.5771713256835938,0
0.9708080291748047,0.5771713256835938,0
0.9829118728637695,0.5688680648803711,0
0.9859851837158202,0.5688680648803711,0
0.9814447402954101,0.5774494171142578,0
0.9639141082763671,0.5774494171142578,0
0.9674531936645507,0.5590147018432617,0
1.0027868270874023,0.5590147018432617,0
0.9830400466918945,0.5726005554199218,0
0.9610794067382812,0.5726005554199218,0
0.9690279006958007,0.5786739349365234,0
0.9727008819580077,0.5786739349365234,0
0.9845970153808593,0.5696949005126953,0
0.9872022628784179,0.5696949005126953,0
0.9819351196289062,0.5768983840942382,0
0.9631879806518554,0.5768983840942382,0
0.9652639389038086,0.5556816101074219,0
0.9985902786254882,0.5556816101074219,0
0.9761461257934569,0.5643487930297851,0
0.9508638381958008,0.5643487930297851,0
0.9555330276489258,0.5638109207153320,0
0.9555118560791015,0.5638109207153320,0
0.9643827438354492,0.5488626480102539,0
0.9644227981567383,0.5488626480102539,0
0.9571763992309570,0.5518959045410156,0
0.9369684219360351,0.5518959045410156,0
0.9384195327758789,0.5293928146362304,0
0.9717561721801757,0.5293928146362304,0
0.9502950668334961,0.5399665832519531,0
0.9271705627441406,0.5399665832519531,0
0.9344970703125000,0.5447170257568359,0
0.9376596450805663,0.5447170257568359,0
0.9527343749999999,0.5360521316528321,0
0.9368122100830077,0.5290580749511719,0
0.9482866287231445,0.5416803359985352,0
0.9351728439331054,0.5416803359985352,0
0.9421531677246093,0.5380245208740234,0
0.9320434570312499,0.5380245208740234,0
0.9476388931274413,0.5272390365600585,0
0.9710763931274413,0.5272390365600585,0
0.9495889663696289,0.5484764099121093,0
0.9331277847290038,0.5484764099121093,0
0.9443658828735351,0.5366741180419922,0
0.9650035858154297,0.5366741180419922,0
0.9562156677246093,0.5496110916137695,0
0.9412336349487305,0.5496110916137695,0
0.9499368667602539,0.5456548690795898,0
0.9396045684814452,0.5456548690795898,0
0.9548423767089843,0.5342136383056640,0
0.9779766082763671,0.5342136383056640,0
0.9560943603515625,0.5546087265014649,0
0.9392824172973633,0.5546087265014649,0
0.9501520156860351,0.5422817230224609,0
0.9706323623657226,0.5422817230224609,0
0.9619823455810547,0.5550636291503906,0
0.9488239288330078,0.5550636291503906,0
0.9557241439819335,0.5512487411499023,0
0.9651586532592773,0.5512487411499023,0
0.9609083175659179,0.5401771545410156,0
0.9841581344604492,0.5401771545410156,0
0.9622695922851562,0.5606981277465820,0
0.9454479217529297,0.5606981277465820,0
0.9563461303710937,0.5481702804565429,0
0.9680179595947265,0.5481702804565429,0
0.9675968170166015,0.5602489471435547,0
0.9523052215576171,0.5602489471435547,0
0.9607240676879882,0.5557125091552734,0
0.9499631881713867,0.5557125091552734,0
0.9877487182617187,0.5436813354492187,0
0.9559770584106445,0.5436813354492187,0
0.9655454635620117,0.5631889343261719,0
0.9483552932739258,0.5631889343261719,0
0.9586790084838867,0.5499841690063476,0
0.9785511016845703,0.5499841690063476,0
0.9692693710327148,0.5614717483520507,0
0.9536733627319336,0.5614717483520507,0
0.9618444442749023,0.5563974380493164,0
0.9509834289550780,0.5563974380493164,0
0.9657680511474609,0.5442649841308593,0
0.9884136199951171,0.5442649841308593,0
0.9660490036010742,0.5637491226196288,0
0.9489183425903320,0.5637491226196288,0
0.9592243194580078,0.5505317687988281,0
0.9791112899780273,0.5505317687988281,0
0.9700710296630859,0.5623243331909179,0
0.9546054840087890,0.5623243331909179,0
0.9629636764526367,0.5575075149536133,0
0.9521810531616210,0.5575075149536133,0
0.9672552108764648,0.5456462860107422,0
0.9902034759521484,0.5456462860107422,0
0.9679653167724609,0.5655687332153320,0
0.9509313583374023,0.5655687332153320,0
0.9615303039550781,0.5527788162231445,0
0.9815237045288085,0.5527788162231445,0
0.9726419448852539,0.5646955490112304,0
0.9573669433593750,0.5646955490112304,0
0.9658035278320312,0.5601322174072265,0
0.9550569534301757,0.5601322174072265,0
0.9700435638427733,0.5483676910400390,0
0.9931108474731445,0.5483676910400390,0
0.9709550857543945,0.5682832717895507,0
0.9538707733154297,0.5682832717895507,0
0.9644496917724609,0.5553852081298828,0
0.9843761444091796,0.5553852081298828,0
0.9753742218017578,0.5671772003173828,0
0.9599842071533202,0.5671772003173828,0
0.9683017730712891,0.5623020172119141,0
0.9574567794799804,0.5623020172119141,0
0.9723249435424804,0.5503755569458008,0
0.9951021194458007,0.5503755569458008,0
0.9727952957153320,0.5700319290161132,0
0.9555971145629882,0.5700319290161132,0
0.9660844802856445,0.5569467544555664,0
0.9858787536621093,0.5569467544555664,0
0.9768402099609375,0.5685859680175781,0
0.9612642288208008,0.5685859680175781,0
0.9696819305419921,0.5637205123901367,0
0.9587694168090820,0.5637205123901367,0
0.9737777709960938,0.5517843246459960,0
0.9965921401977539,0.5517843246459960,0
0.9741788864135742,0.5713268280029297,0
0.9570459365844726,0.5713268280029297,0
0.9674823760986327,0.5582885742187500,0
0.9871335983276367,0.5582885742187500,0
0.9782775878906249,0.5698585510253906,0
0.9627382278442382,0.5698585510253906,0
0.9711238861083984,0.5651355743408203,0
0.9602485656738281,0.5651355743408203,0
0.9752037048339843,0.5532623291015625,0
0.9980558395385741,0.5532623291015625,0
0.9758268356323242,0.5727996826171875,0
0.9586572647094727,0.5727996826171875,0
0.9689060211181640,0.5597454071044922,0
0.9886562347412109,0.5597454071044922,0
0.9798528671264648,0.5714498519897461,0
0.9643604278564453,0.5714498519897461,0
0.9727025985717773,0.5665786743164062,0
0.9618513107299804,0.5665786743164062,0
0.9767755508422851,0.5547266006469727,0
0.9995601654052734,0.5547266006469727,0
0.9772430419921875,0.5742370605468750,0
0.9600082397460937,0.5742370605468750,0
0.9701150894165038,0.5609149932861328,0
0.9896066665649413,0.5609149932861328,0
0.9803186416625976,0.5715757369995117,0
0.9642099380493163,0.5715757369995117,0
0.9714952468872070,0.5646932601928710,0
0.9589685440063476,0.5646932601928710,0
0.9718065261840820,0.5487636566162110,0
0.9915733337402344,0.5487636566162110,0
0.9659128189086914,0.5616731643676758,0
0.9448156356811523,0.5616731643676758,0
0.9514068603515624,0.5412483215332031,0
0.9674909591674804,0.5412483215332031,0
0.9556486129760742,0.5464513778686523,0
0.9371875762939452,0.5464513778686523,0
0.9431167602539062,0.5364103317260742,0
0.9297523498535156,0.5364103317260742,0
0.9428689956665038,0.5210815429687500,0
0.9642757415771483,0.5210815429687500,0
0.9409372329711914,0.5385074615478516,0
0.9229499816894531,0.5385074615478516,0
0.9328554153442382,0.5244707107543946,0
0.9522537231445312,0.5244707107543946,0
0.9434377670288085,0.5359537124633789,0
0.9282033920288085,0.5359537124633789,0
0.9369964599609375,0.5316913604736327,0
0.9264421463012695,0.5316913604736327,0
0.9417612075805664,0.5209178924560547,0
0.9652622222900390,0.5209178924560547,0
0.9435733795166015,0.5417129516601562,0
0.9269794464111327,0.5417129516601562,0
0.9379262924194336,0.5300102233886719,0
0.9581995010375977,0.5300102233886719,0
0.9499832153320312,0.5426965713500976,0
0.9352329254150390,0.5426965713500976,0
0.9441867828369140,0.5388004302978515,0
0.9335454940795898,0.5388004302978515,0
0.9487964630126953,0.5277631759643554,0
0.9720108032226562,0.5277631759643554,0
0.9500621795654296,0.5478395462036133,0
0.9331678390502929,0.5478395462036133,0
0.9435304641723632,0.5353248596191406,0
0.9633041381835937,0.5353248596191406,0
0.9548126220703125,0.5472667694091796,0
0.9397968292236327,0.5472667694091796,0
0.9486202239990233,0.5432086944580078,0
0.9381769180297851,0.5432086944580078,0
0.9535377502441406,0.5325284957885742,0
0.9770473480224608,0.5325284957885742,0
0.9552989959716797,0.5532279968261719,0
0.9387445449829102,0.5532279968261719,0
0.9495134353637695,0.5412998199462891,0
0.9612133026123046,0.5412998199462891,0
0.9612716674804687,0.5537218093872071,0
0.9463285446166991,0.5537218093872071,0
0.9552011489868164,0.5494892120361328,0
0.9444780349731445,0.5494892120361328,0
0.9594451904296875,0.5381046295166015,0
0.9826429367065429,0.5381046295166015,0
0.9604024887084961,0.5578611373901367,0
0.9433238983154296,0.5578611373901367,0
0.9535068511962890,0.5449029922485351,0
0.9730945587158203,0.5449029922485351,0
0.9645509719848633,0.5563825607299805,0
0.9491163253784179,0.5563825607299805,0
0.9575963973999023,0.5515119552612304,0
0.9466718673706054,0.5515119552612304,0
0.9616310119628906,0.5398532867431640,0
0.9845335006713867,0.5398532867431640,0
0.9622083663940429,0.5594381332397461,0
0.9450365066528320,0.5594381332397461,0
0.9552955627441406,0.5464342117309570,0
0.9749261856079101,0.5464342117309570,0
0.9663568496704101,0.5580287933349609,0
0.9509445190429687,0.5580287933349609,0
0.9595630645751952,0.5533292770385742,0
0.9485761642456054,0.5533292770385742,0
0.9634689331054687,0.5418148040771484,0
0.9865259170532226,0.5418148040771484,0
0.9643421173095703,0.5614620208740234,0
0.9472578048706054,0.5614620208740234,0
0.9575637817382812,0.5487350463867188,0
0.9771503448486327,0.5487350463867188,0
0.9688316345214844,0.5604566574096680,0
0.9535314559936523,0.5604566574096680,0
0.9621042251586913,0.5559556961059570,0
0.9513078689575195,0.5559556961059570,0
0.9662767410278320,0.5447032928466796,0
0.9894041061401366,0.5447032928466796,0
0.9672855377197265,0.5644071578979492,0
0.9503013610839843,0.5644071578979492,0
0.9606616973876952,0.5517568588256836,0
0.9802556991577148,0.5517568588256836,0
0.9718975067138671,0.5634904861450195,0
0.9565967559814452,0.5634904861450195,0
0.9652456283569335,0.5588722229003906,0
0.9543954849243164,0.5588722229003906,0
0.9692619323730468,0.5473503112792969,0
0.9922502517700195,0.5473503112792969,0
0.9701745986938476,0.5668807983398437,0
0.9530422210693359,0.5668807983398437,0
0.9630558013916015,0.5540479660034180,0
0.9825908660888671,0.5540479660034180,0
0.9740781784057617,0.5654869079589844,0
0.9587533950805663,0.5654869079589844,0
0.9673988342285156,0.5607204437255859,0
0.9564222335815429,0.5607204437255859,0
0.9713396072387694,0.5492168426513672,0
0.9942987442016601,0.5492168426513672,0
0.9719821929931640,0.5687662124633789,0
0.9779811859130859,0.5489181518554688,0
0.9649509429931640,0.5557268142700195,0
0.9843109130859374,0.5557268142700195,0
0.9760019302368164,0.5672441482543945,0
0.9605895996093750,0.5672441482543945,0
0.9692539215087890,0.5622579574584960,0
0.9581388473510741,0.5622579574584960,0
0.9729074478149413,0.5509077072143554,0
0.9959186553955077,0.5509077072143554,0
0.9736764907836913,0.5703420639038086,0
0.9565057754516602,0.5703420639038086,0
0.9658321380615233,0.5575069427490235,0
0.9860023498535155,0.5575069427490235,0
0.9776058197021484,0.5688514709472656,0
0.9622014999389648,0.5688514709472656,0
0.9704177856445312,0.5641942977905273,0
0.9598834991455077,0.5641942977905273,0
0.9975013732910156,0.5524143218994141,0
0.9655666351318359,0.5524143218994141,0
0.9752992630004882,0.5718629837036132,0
0.9581691741943359,0.5718629837036132,0
0.9680557250976562,0.5586410522460937,0
0.9870718002319335,0.5586410522460937,0
0.9784698486328125,0.5692445755004882,0
0.9623176574707031,0.5692445755004882,0
0.9701339721679687,0.5624713897705078,0
0.9574201583862304,0.5624713897705078,0
0.9702278137207031,0.5471769332885742,0
0.9902973175048828,0.5471769332885742,0
0.9645114898681640,0.5599239349365234,0
0.9434652328491211,0.5599239349365234,0
0.9496004104614257,0.5391820907592774,0
0.9650430679321289,0.5391820907592774,0
0.9351173400878906,0.5442855834960937,0
0.9363710403442382,0.5263017654418946,0
0.9471868515014648,0.5355989456176757,0
0.9300521850585937,0.5527639389038086,0
0.9319375991821288,0.5355972290039063,0
0.9436672210693359,0.5289041519165039,0
0.9229116439819336,0.5369922637939453,0
0.9399530410766601,0.5186073303222656,0
0.9345085144042968,0.5310682296752930,0
0.9390975952148437,0.5181180953979492,0
0.9307428359985351,0.5181180953979492,0
0.9244468688964843,0.5386516571044921,0
0.9351093292236328,0.5270536422729492,0
0.9468017578125000,0.5432035446166992,0
0.9338092803955078,0.5256414413452148,0
0.9414733886718749,0.5384685516357421,0
0.9461872100830078,0.5402589797973633,0
0.9410825729370117,0.5473377227783203,0
0.9476234436035156,0.5449384689331055,0
0.9410144805908203,0.5326045989990235,0
0.9527137756347656,0.5249216079711914,0
0.9377220153808593,0.5445922851562500,0
0.9471799850463867,0.5408437728881835,0
0.9521306991577148,0.5310264587402344,0
0.9438869476318359,0.5537778854370117,0
0.9610782623291015,0.5328300476074218,0
0.9604150772094726,0.5413015365600585,0
0.9438114166259766,0.5564701080322265,0
0.9832963943481445,0.5389228820800781,0
0.9644199371337890,0.5532102584838867,0
0.9599058151245117,0.5447456359863281,0
0.9613145828247069,0.5579246520996094,0
0.9712406158447265,0.5818742752075196,0
0.9682765960693359,0.5565536499023437,0
0.9576490402221679,0.5631208419799805,0
0.9643661499023437,0.5605236053466797,0
0.9569046020507812,0.5472278594970703,0
0.9678783416748047,0.5392690658569336,0
0.9525398254394530,0.5588865280151367,0
0.9613363265991210,0.5536926269531249,0
0.9651088714599609,0.5428825378417969,0
0.9559049606323242,0.5645736694335938,0
0.9714632034301758,0.5423292160034180,0
0.9775485992431641,0.5492328643798828,0
0.9695600509643554,0.5646520614624023,0
0.9555118560791015,0.5465526580810547,0
0.9631753921508789,0.5585718154907227,0
0.9672220230102538,0.5516647338867188,0
0.9902681350708007,0.5451644897460938,0
0.9515882492065429,0.5648735046386718,0
0.9744832992553710,0.5589088439941406,0
0.9724016189575195,0.5675806045532227,0
0.9733051300048827,0.5444543838500976,0
0.9557836532592773,0.5595365524291992,0
0.9751155853271484,0.5634424209594726,0
0.9619131088256836,0.5700954437255860,0
0.9717241287231445,0.5700954437255860,0
0.9654453277587890,0.5624879837036133,0
0.9654453277587890,0.5562612533569335,0
0.9623239517211913,0.5678300857543945,0
0.9636371612548827,0.5543420791625976,0
0.9800468444824219,0.5686203002929687,0
0.9752449035644530,0.5601322174072265,0
0.9762823104858398,0.5746438980102538,0
0.9597799301147460,0.5657987594604492,0
0.9693660736083984,0.5598970413208008,0
0.9798992156982421,0.5705503463745117,0
0.9657474517822265,0.5806743621826171,0
0.9811397552490234,0.5697149276733399,0
0.9606250762939452,0.5697149276733399,0
0.9693042755126953,0.5779541015624999,0
0.9852401733398437,0.5700777053833007,0
0.9720159530639648,0.5632713317871093,0
0.9825805664062499,0.5741472244262695,0
0.9683063507080077,0.5846952438354492,0
0.9842554092407226,0.5539964675903321,0
0.9795724868774414,0.5733215332031250,0
0.9715919494628906,0.5793851852416992,0
0.9846496582031250,0.5697984695434570,0
0.9708257675170898,0.5979206085205078,0
0.9790117263793945,0.5503698348999023,0
0.9640331268310547,0.5699289321899413,0
0.9733657836914062,0.5608045578002929,0
0.9733657836914062,0.5611164093017578,0
0.9521696090698242,0.5610271453857422,0
0.9588163375854492,0.5398870468139648,0
0.9458061218261719,0.5367490768432617,0
0.9542821884155273,0.5346227645874023,0
0.9302925109863280,0.5232215881347656,0
0.9492147445678710,0.5355760574340820,0
0.9419385910034179,0.5389629364013672,0
0.9414510726928711,0.5476821899414063,0
0.9477590560913085,0.5454860687255859,0
0.9414293289184570,0.5681173324584960,0
0.9519098281860351,0.5269958496093750,0
0.9382392883300781,0.5450666427612304,0
0.9372465133666992,0.5415510177612305,0
0.9551553726196289,0.5271778106689453,0
0.9432415008544921,0.5648677825927734,0
0.9467983245849609,0.5524909973144531,0
0.9624406814575195,0.5458236694335937,0
0.9473161697387695,0.5401330947875976,0
0.9587110519409179,0.5514690399169921,0
0.9463582992553711,0.5614740371704101,0
0.9622455596923828,0.5346988677978516,0
0.9433301925659179,0.5525785446166992,0
0.9507980346679688,0.5588464736938477,0
0.9596580505371093,0.5439748764038086,0
0.9539222717285156,0.5460348129272461,0
0.9699977874755858,0.5460348129272461,0
0.9499654769897461,0.5550407409667969,0
0.9506446838378906,0.5437036514282226,0
0.9640319824218749,0.5541910171508789,0
0.9600986480712890,0.5473176956176757,0
0.9473985671997069,0.5567584991455078,0
0.9548246383666992,0.5467391967773437,0
0.9622341156005859,0.5462556838989258,0
0.9503717422485352,0.5625360488891601,0
0.9769409179687499,0.5432384490966796,0
0.9466009140014648,0.5528692245483399,0
0.9587951660156250,0.5413558959960937,0
0.9593187332153320,0.5553394317626953,0
0.9639101028442383,0.5553394317626953,0
0.9611200332641601,0.5456542968750000,0
0.9611200332641601,0.5568277359008789,0
0.9496009826660156,0.5429059982299804,0
0.9572181701660156,0.5499944686889648,0
0.9582584381103515,0.5415390014648437,0
0.9531034469604491,0.5415390014648437,0
0.9643037796020507,0.5557147979736328,0
0.9643037796020507,0.5512229919433593,0
0.9621459960937500,0.5579515457153320,0
0.9619674682617188,0.5404706954956054,0
0.9584375381469726,0.5505203247070313,0
0.9637659072875976,0.5393589019775390,0
0.9787199020385742,0.5429208755493163,0
0.9494762420654297,0.5580825805664062,0
0.9668958663940429,0.5535718917846679,0
0.9648719787597656,0.5606512069702149,0
0.9545785903930664,0.5656637191772461,0
0.9796400070190430,0.5475351333618164,0
0.9677238464355469,0.5573249816894531,0
0.9537265777587890,0.5573249816894531,0
0.9594194412231445,0.5642063140869140,0
0.9603429794311523,0.5642063140869140,0
0.9709098815917968,0.5571905136108398,0
0.9755069732666015,0.5571905136108398,0
0.9694810867309570,0.5643562316894531,0
0.9698158264160156,0.5643562316894531,0
0.9592964172363281,0.5514850616455078,0
0.9843532562255859,0.5514850616455078,0
0.9723873138427734,0.5610752105712891,0
0.9584495544433593,0.5610752105712891,0
0.9637453079223632,0.5676229476928710,0
0.9644422531127930,0.5676229476928710,0
0.9748649597167969,0.5602701187133788,0
0.9791090011596679,0.5602701187133788,0
0.9727535247802734,0.5669803619384766,0
0.9614816665649414,0.5669803619384766,0
0.9623834609985351,0.5538637161254882,0
0.9872383117675780,0.5538637161254882,0
0.9752300262451171,0.5631425857543945,0
0.9610227584838866,0.5631425857543945,0
0.9662286758422851,0.5693235397338867,0
0.9667465209960937,0.5693235397338867,0
0.9769638061523437,0.5617973327636718,0
0.9812255859375000,0.5617973327636718,0
0.9749055862426758,0.5681911468505859,0
0.9632709503173827,0.5681911468505859,0
0.9640548706054687,0.5548261642456055,0
0.9885320663452148,0.5548261642456055,0
0.9763950347900390,0.5637542724609375,0
0.9618942260742187,0.5637542724609375,0
0.9669742584228516,0.5696474075317383,0
0.9671476364135742,0.5696474075317383,0
0.9772899627685546,0.5617378234863281,0
0.9811820983886719,0.5617378234863281,0
0.9743253707885742,0.5672533035278320,0
0.9620916366577148,0.5672533035278320,0
0.9619131088256836,0.5519989013671874,0
0.9849386215209961,0.5519989013671874,0
0.9709482192993164,0.5573072433471680,0
0.9538604736328125,0.5573072433471680,0
0.9557567596435547,0.5571882247924804,0
0.9525323867797851,0.5571882247924804,0
0.9593696594238281,0.5429637908935546,0
0.9603773117065429,0.5429637908935546,0
0.9513404846191406,0.5441991806030273,0
0.9373804092407226,0.5441991806030273,0
0.9363327026367188,0.5268373489379883,0
0.9590166091918945,0.5268373489379883,0
0.9455068588256835,0.5331487655639648,0
0.9301242828369141,0.5331487655639648,0
0.9345800399780273,0.5377441406250000,0
0.9346464157104492,0.5377441406250000,0
0.9447309494018554,0.5298906326293945,0
0.9490837097167968,0.5298906326293945,0
0.9429834365844726,0.5372177124023437,0
0.9321361541748047,0.5372177124023437,0
0.9336473464965820,0.5253885269165038,0
0.9588558197021484,0.5253885269165038,0
0.9476188659667968,0.5358198165893554,0
0.9341285705566406,0.5358198165893554,0
0.9399370193481444,0.5433837890625000,0
0.9410625457763672,0.5433837890625000,0
0.9518766403198242,0.5371129989624023,0
0.9566717147827148,0.5371129989624023,0
0.9507236480712891,0.5446924209594727,0
0.9397499084472656,0.5446924209594727,0
0.9409543991088867,0.5322383880615235,0
0.9657016754150390,0.5322383880615235,0
0.9540716171264648,0.5419115066528321,0
0.9402854919433593,0.5419115066528321,0
0.9456510543823242,0.5485919952392578,0
0.9463851928710937,0.5485919952392578,0
0.9569372177124023,0.5417564392089843,0
0.9615514755249023,0.5417564392089843,0
0.9554191589355469,0.5490085601806640,0
0.9446165084838867,0.5490085601806640,0
0.9460126876831054,0.5369087219238281,0
0.9707565307617188,0.5369087219238281,0
0.9592861175537108,0.5467506408691406,0
0.9454805374145507,0.5467506408691406,0
0.9508913040161132,0.5533023834228515,0
0.9514451980590820,0.5533023834228515,0
0.9617494583129882,0.5460210800170898,0
0.9659820556640625,0.5460210800170898,0
0.9593730926513672,0.5524034500122070,0
0.9480445861816406,0.5524034500122070,0
0.9489177703857421,0.5392416000366210,0
0.9730567932128906,0.5392416000366210,0
0.9611978530883789,0.5481422424316406,0
0.9470392227172851,0.5481422424316406,0
0.9519899368286132,0.5541320800781250,0
0.9523824691772460,0.5541320800781250,0
0.9624898910522460,0.5464433670043946,0
0.9535263061523437,0.5464433670043946,0
0.9598382949829101,0.5528457641601562,0
0.9486579895019531,0.5528457641601562,0
0.9494596481323242,0.5395734786987304,0
0.9735197067260741,0.5395734786987304,0
0.9617866516113280,0.5485433578491211,0
0.9476818084716796,0.5485433578491211,0
0.9526376724243164,0.5545211791992187,0
0.9590354919433594,0.5545211791992187,0
0.9628314971923828,0.5466905593872070,0
0.9668283462524414,0.5466905593872070,0
0.9601089477539062,0.5528280258178710,0
0.9487707138061523,0.5528280258178710,0
0.9495031356811523,0.5394773483276367,0
0.9735689163208008,0.5394773483276367,0
0.9619388580322266,0.5487533569335937,0
0.9477384567260742,0.5487533569335937,0
0.9528739929199218,0.5548851013183593,0
0.9537672042846679,0.5548851013183593,0
0.9639656066894531,0.5478979110717773,0
0.9679487228393554,0.5478979110717773,0
0.9618152618408202,0.5545904159545898,0
0.9508592605590820,0.5545904159545898,0
0.9520082473754883,0.5419790267944335,0
0.9770427703857422,0.5419790267944335,0
0.9654853820800781,0.5520017623901367,0
0.9514137268066406,0.5520017623901367,0
0.9567535400390624,0.5583772659301758,0
0.9577829360961914,0.5583772659301758,0
0.9681289672851562,0.5514621734619141,0
0.9720983505249023,0.5514621734619141,0
0.9658916473388671,0.5580448150634766,0
0.9549327850341797,0.5580448150634766,0
0.9560920715332031,0.5452823638916016,0
0.9808216094970703,0.5452823638916016,0
0.9689414978027343,0.5548147201538086,0
0.9547119140625000,0.5548147201538086,0
0.9600322723388671,0.5609739303588867,0
0.9602405548095703,0.5609739303588867,0
0.9748294830322265,0.5533699035644531,0
0.9716131210327148,0.5495687484741211,0
0.9587991714477538,0.5555459976196289,0
0.9559043884277343,0.5523628234863281,0
0.9697196960449218,0.5523628234863281,0
0.9658922195434569,0.5453350067138671,0
0.9829490661621093,0.5453350067138671,0
0.9668094635009765,0.5579429626464844,0
0.9550912857055663,0.5579429626464844,0
0.9611303329467773,0.5492328643798828,0
0.9712366104125976,0.5492328643798828,0
0.9676786422729492,0.5551036834716797,0
0.9571277618408203,0.5551036834716797,0
0.9634248733520507,0.5514438629150390,0
0.9560548782348632,0.5514438629150390,0
0.9663242340087890,0.5441116333007813,0
0.9833988189697265,0.5441116333007813,0
0.9664014816284179,0.5589351654052734,0
0.9519006729125976,0.5589351654052734,0
0.9596254348754882,0.5472261428833007,0
0.9768465042114257,0.5472261428833007,0
0.9694707870483398,0.5572088241577148,0
0.9546833038330078,0.5572088241577148,0
0.9638420104980469,0.5530637741088867,0
0.9550569534301757,0.5530637741088867,0
0.9679286956787109,0.5442529678344726,0
0.9878345489501953,0.5442529678344726,0
0.9684122085571288,0.5610843658447265,0
0.9526308059692382,0.5610843658447265,0
0.9612939834594726,0.5491098403930664,0
0.9791702270507812,0.5491098403930664,0
0.9718957901000976,0.5595571517944335,0
0.9589645385742187,0.5595571517944335,0
0.9663288116455078,0.5552324295043946,0
0.9572982788085938,0.5552324295043946,0
0.9702781677246093,0.5467386245727539,0
0.9900798797607422,0.5467386245727539,0
0.9707983016967773,0.5631660461425781,0
0.9551628112792968,0.5631660461425781,0
0.9637573242187499,0.5513059616088867,0
0.9811809539794921,0.5513059616088867,0
0.9741468429565430,0.5613790512084961,0
0.9596145629882812,0.5613790512084961,0
0.9684700012207030,0.5569862365722656,0
0.9758262634277344,0.5569862365722656,0
0.9719615936279297,0.5486160278320312,0
0.9913255691528320,0.5486160278320312,0
0.9722459793090820,0.5642297744750976,0
0.9569921493530273,0.5642297744750976,0
0.9652633666992188,0.5522300720214843,0
0.9773729324340820,0.5522300720214843,0
0.9711605072021484,0.5576591491699219,0
0.9570024490356445,0.5576591491699219,0
0.9617906570434570,0.5484855651855468,0
0.9481939315795898,0.5484855651855468,0
0.9565933227539062,0.5327064514160156,0
0.9728404998779296,0.5327064514160156,0
0.9506246566772460,0.5420248031616210,0
0.9322065353393554,0.5420248031616210,0
0.9367481231689453,0.5238378524780273,0
0.9531171798706054,0.5238378524780273,0
0.9430023193359375,0.5308307647705078,0
0.9252056121826171,0.5308307647705078,0
0.9332078933715819,0.5235511779785156,0
0.9404508590698242,0.5235511779785156,0
0.9350864410400390,0.5118032455444336,0
0.9565263748168945,0.5118032455444336,0
0.9352083206176758,0.5295032501220703,0
0.9177589416503906,0.5295032501220703,0
0.9270624160766601,0.5167121887207031,0
0.9378662109375000,0.5167121887207031,0
0.9395307540893554,0.5288389205932617,0
0.9242557525634765,0.5288389205932617,0
0.9345989227294922,0.5260168075561523,0
0.9246757507324218,0.5260168075561523,0
0.9638700485229492,0.5171150207519531,0
0.9311296463012695,0.5171150207519531,0
0.9426813125610352,0.5371702194213867,0
0.9255907058715820,0.5371702194213867,0
0.9354372024536133,0.5250766754150390,0
0.9555810928344726,0.5250766754150390,0
0.9483192443847656,0.5373109817504883,0
0.9329017639160155,0.5373109817504883,0
0.9430463790893554,0.5339263916015625,0
0.9321201324462890,0.5339263916015625,0
0.9475839614868163,0.5241073608398438,0
0.9714460372924805,0.5241073608398438,0
0.9497056961059570,0.5439336776733398,0
0.9325012207031249,0.5439336776733398,0
0.9422327041625976,0.5317377090454102,0
0.9624023437500000,0.5317377090454102,0
0.9553138732910156,0.5441740036010742,0
0.9401132583618164,0.5441740036010742,0
0.9503007888793945,0.5407121658325195,0
0.9391044616699218,0.5407121658325195,0
0.9544126510620117,0.5305932998657227,0
0.9783731460571289,0.5305932998657227,0
0.9560886383056640,0.5498010635375976,0
0.9383823394775390,0.5498010635375976,0
0.9478179931640625,0.5367130279541016,0
0.9674560546875000,0.5367130279541016,0
0.9599962234497070,0.5482040405273437,0
0.9444471359252929,0.5482040405273437,0
0.9541671752929687,0.5440864562988281,0
0.9426572799682617,0.5440864562988281,0
0.9580295562744140,0.5336191177368164,0
0.9819437026977539,0.5336191177368164,0
0.9596317291259765,0.5529275894165039,0
0.9420301437377929,0.5529275894165039,0
0.9515922546386718,0.5401651382446289,0
0.9715169906616210,0.5401651382446289,0
0.9642740249633789,0.5520887374877930,0
0.9489051818847656,0.5520887374877930,0
0.9589536666870117,0.5482995986938476,0
0.9474248886108398,0.5482995986938476,0
0.9626729965209960,0.5377349853515625,0
0.9867450714111328,0.5377349853515625,0
0.9643358230590819,0.5569633483886719,0
0.9466592788696289,0.5569633483886719,0
0.9560531616210937,0.5440034866333008,0
0.9757186889648437,0.5440034866333008,0
0.9684637069702148,0.5555351257324218,0
0.9529970169067382,0.5555351257324218,0
0.9627456665039062,0.5515434265136718,0
0.9509147644042968,0.5515434265136718,0
0.9661623001098633,0.5406984329223633,0
0.9900112152099609,0.5406984329223633,0
0.9674274444580078,0.5597785949707031,0
0.9496873855590819,0.5597785949707031,0
0.9590515136718749,0.5466098785400391,0
0.9783514022827148,0.5466098785400391,0
0.9710552215576171,0.5579881668090820,0
0.9553556442260742,0.5579881668090820,0
0.9652542114257812,0.5537984848022460,0
0.9533781051635741,0.5537984848022460,0
0.9684877395629883,0.5430759429931641,0
0.9924362182617187,0.5430759429931641,0
0.9700613021850586,0.5622047424316406,0
0.9523326873779296,0.5622047424316406,0
0.9617322921752929,0.5491395950317383,0
0.9811014175415038,0.5491395950317383,0
0.9738229751586913,0.5604698181152343,0
0.9581731796264648,0.5604698181152343,0
0.9679372787475585,0.5561176300048828,0
0.9559020996093750,0.5561176300048828,0
0.9710094451904296,0.5451971054077148,0
0.9947839736938476,0.5451971054077148,0
0.9719535827636718,0.5638790130615234,0
0.9539216995239257,0.5638790130615234,0
0.9628801345825195,0.5502490997314453,0
0.9821062088012695,0.5502490997314453,0
0.9745044708251953,0.5611587524414062,0
0.9585308074951171,0.5611587524414062,0
0.9681243896484375,0.5563047409057617,0
0.9558534622192383,0.5563047409057617,0
0.9706237792968749,0.5448589324951172,0
0.9940578460693359,0.5448589324951172,0
0.9711490631103515,0.5630876541137695,0
0.9528030395507812,0.5630876541137695,0
0.9614816665649414,0.5491075515747070,0
0.9804891586303710,0.5491075515747070,0
0.9727380752563476,0.5596172332763671,0
0.9564611434936523,0.5596172332763671,0
0.9660358428955078,0.5546762466430664,0
0.9537099838256835,0.5546762466430664,0
0.9684963226318359,0.5430862426757812,0
0.9920568466186523,0.5430862426757812,0
0.9690319061279297,0.5615610122680664,0
0.9506544113159179,0.5615610122680664,0
0.9595991134643554,0.5477806091308594,0
0.9787828445434570,0.5477806091308594,0
0.9712566375732421,0.5587457656860352,0
0.9554803848266601,0.5587457656860352,0
0.9652347564697266,0.5542882919311524,0
0.9532545089721679,0.5542882919311524,0
0.9685386657714843,0.5437322616577148,0
0.9924139022827148,0.5437322616577148,0
0.9699337005615234,0.5629617691040039,0
0.9521524429321289,0.5629617691040039,0
0.9615394592285156,0.5499790191650390,0
0.9810939788818359,0.5499790191650390,0
0.9740438461303711,0.5615924835205078,0
0.9587047576904296,0.5615924835205078,0
0.9685976028442382,0.5575332641601562,0
0.9566711425781249,0.5575332641601562,0
0.9719060897827148,0.5471145629882812,0
0.9959135055541992,0.5471145629882812,0
0.9731878280639648,0.5661123275756835,0
0.9551885604858398,0.5661123275756835,0
0.9640657424926757,0.5521734237670898,0
0.9826206207275390,0.5521734237670898,0
0.9745805740356445,0.5617538452148437,0
0.9573457717895507,0.5617538452148437,0
0.9654367446899413,0.5536897659301757,0
0.9506561279296875,0.5536897659301757,0
0.9623308181762695,0.5365133285522461,0
0.9821840286254883,0.5365133285522461,0
0.9555238723754882,0.5477233886718750,0
0.9337789535522460,0.5477233886718750,0
0.9395605087280273,0.5277980804443360,0
0.9553682327270507,0.5277980804443360,0
0.9455400466918945,0.5334611892700195,0
0.9272094726562500,0.5334611892700195,0
0.9351699829101562,0.5249599456787110,0
0.9212184906005859,0.5249599456787110,0
0.9347963333129883,0.5115251541137695,0
0.9576124191284179,0.5115251541137695,0
0.9341720581054687,0.5286643981933593,0
0.9158317565917968,0.5286643981933593,0
0.9247032165527344,0.5150356292724609,0
0.9439081192016601,0.5150356292724609,0
0.9373174667358398,0.5266038894653320,0
0.9221025466918945,0.5266038894653320,0
0.9328983306884765,0.5234659194946288,0
0.9216201782226562,0.5234659194946288,0
0.9374593734741210,0.5143581390380859,0
0.9624938964843750,0.5143581390380859,0
0.9406379699707030,0.5349328994750976,0
0.9238523483276366,0.5349328994750976,0
0.9336977005004883,0.5233303070068359,0
0.9534336090087890,0.5233303070068359,0
0.9472469329833983,0.5357929229736328,0
0.9322923660278319,0.5357929229736328,0
0.9430040359497069,0.5322933197021484,0
0.9312005996704101,0.5322933197021484,0
0.9467439651489258,0.5223398208618164,0
0.9713310241699218,0.5223398208618164,0
0.9486236572265625,0.5416980743408203,0
0.9309625625610352,0.5416980743408203,0
0.9403369903564452,0.5289030075073242,0
0.9597192764282226,0.5289030075073242,0
0.9533002853393554,0.5410074234008789,0
0.9382461547851562,0.5410074234008789,0
0.9491209030151366,0.5377384185791015,0
0.9374588012695312,0.5377384185791015,0
0.9534147262573242,0.5286958694458007,0
0.9785476684570312,0.5286958694458007,0
0.9560457229614258,0.5487401962280273,0
0.9385099411010742,0.5487401962280273,0
0.9478832244873047,0.5360801696777343,0
0.9669816970825195,0.5360801696777343,0
0.9601907730102539,0.5473588943481446,0
0.9445404052734374,0.5473588943481446,0
0.9546735763549804,0.5429666519165038,0
0.9422658920288085,0.5429666519165038,0
0.9574419021606445,0.5325370788574219,0
0.9817222595214843,0.5325370788574219,0
0.9589336395263671,0.5514472961425781,0
0.9411781311035156,0.5514472961425781,0
0.9503946304321289,0.5385509490966797,0
0.9695909500122070,0.5385509490966797,0
0.9629705429077148,0.5502119064331055,0
0.9475605010986328,0.5502119064331055,0
0.9581617355346679,0.5462974548339844,0
0.9459154129028320,0.5462974548339844,0
0.9614433288574218,0.5362197875976562,0
0.9860149383544922,0.5362197875976562,0
0.9631341934204101,0.5555494308471679,0
0.9452602386474609,0.5555494308471679,0
0.9545854568481444,0.5427486419677734,0
0.9740020751953125,0.5427486419677734,0
0.9674291610717773,0.5544445037841796,0
0.9518411636352538,0.5544445037841796,0
0.9623474121093749,0.5504196166992187,0
0.9499814987182617,0.5504196166992187,0
0.9654933929443359,0.5400300979614258,0
0.9900146484375000,0.5400300979614258,0
0.9668334960937499,0.5592212677001953,0
0.9484972000122069,0.5592212677001953,0
0.9575517654418945,0.5457206726074219,0
0.9767349243164062,0.5457206726074219,0
0.9699766159057617,0.5570096969604492,0
0.9543010711669921,0.5570096969604492,0
0.9647306442260741,0.5527999877929687,0
0.9520374298095703,0.5527999877929687,0
0.9680088043212890,0.5422525405883789,0
0.9929843902587890,0.5422525405883789,0
0.9693586349487304,0.5615867614746094,0
0.9509376525878905,0.5615867614746094,0
0.9602193832397461,0.5481021881103515,0
0.9797430038452148,0.5481021881103515,0
0.9730493545532226,0.5597219467163086,0
0.9570579528808594,0.5597219467163086,0
0.9676803588867187,0.5553886413574218,0
0.9548967361450195,0.5553886413574218,0
0.9708623886108398,0.5446226119995117,0
0.9962162017822265,0.5446226119995117,0
0.9721418380737304,0.5641290664672851,0
0.9535148620605468,0.5641290664672851,0
0.9628068923950195,0.5503515243530274,0
0.9822875976562500,0.5503515243530274,0
0.9597587585449219,0.5618104934692383,0
0.9597673416137695,0.5468347549438476,0
0.9783605575561523,0.5619604110717773,0
0.9734310150146483,0.5545486450195313,0
0.9749908447265625,0.5501924514770508,0
0.9662532806396484,0.5534494400024413,0
0.9615434646606444,0.5432498931884765,0
0.9772871017456054,0.5536485671997070,0
0.9890396118164062,0.5567642211914062,0
0.9813537597656250,0.5724443435668946,0
0.9666240692138671,0.5532073974609375,0
0.9773197174072266,0.5636604309082031,0
0.9798391342163085,0.5604200363159180,0
0.9810304641723633,0.5748945236206054,0
0.9624435424804687,0.5715591430664062,0
0.9708703994750976,0.5572746276855468,0
0.9813611984252929,0.5662164688110352,0
0.9642631530761718,0.5662164688110352,0
0.9580455780029297,0.5584699630737304,0
0.9708148956298828,0.5427978515624999,0
0.9578847885131836,0.5617567062377929,0
0.9687641143798827,0.5322469711303711,0
0.9673198699951171,0.5372034072875976,0
0.9599716186523437,0.5503646850585937,0
0.9416015624999999,0.5279703140258789,0
0.9508312225341796,0.5392856597900391,0
0.9515916824340820,0.5251899719238281,0
0.9410413742065429,0.5605258941650391,0
0.9337160110473632,0.5434776306152344,0
0.9424575805664062,0.5301858901977539,0
0.9536396026611328,0.5453830718994140,0
0.9391553878784179,0.5263761520385742,0
0.9497417449951171,0.5263761520385742,0
0.9521238327026367,0.5337181091308594,0
0.9769271850585937,0.5261335372924805,0
0.9533266067504882,0.5449052810668945,0
0.9440408706665039,0.5316249847412109,0
0.9550374984741210,0.5466356277465820,0
0.9401424407958984,0.5547477722167968,0
0.9773208618164062,0.5375169754028321,0
0.9580627441406250,0.5416660308837891,0
0.9451366424560547,0.5486572265624999,0
0.9538576126098632,0.5454683303833008,0
0.9446371078491210,0.5709400177001953,0
0.9631187438964843,0.5480369567871094,0
0.9574550628662108,0.5442535400390625,0
0.9539102554321288,0.5415029525756836,0
0.9622993469238281,0.5250858306884766,0
0.9491500854492188,0.5694299697875976,0
0.9519950866699218,0.5559019088745117,0
0.9674623489379882,0.5472198486328125,0
0.9531755447387695,0.5800661087036133,0
0.9664375305175781,0.5538002014160156,0
0.9511184692382812,0.5538002014160156,0
0.9698398590087890,0.5501861572265625,0
0.9698398590087890,0.5546596527099609,0
0.9554208755493163,0.5621315002441406,0
0.9661708831787109,0.5431457519531250,0
0.9566934585571288,0.5836389541625976,0
0.9741880416870117,0.5457555770874023,0
0.9518829345703125,0.5557697296142577,0
0.9514989852905273,0.5407442092895508,0
0.9682004928588867,0.5542213439941406,0
0.9627319335937500,0.5542213439941406,0
0.9632898330688476,0.5414880752563477,0
0.9454856872558594,0.5571636199951172,0
0.9536756515502929,0.5437734603881835,0
0.9641527175903319,0.5415470123291015,0
0.9490133285522461,0.5387208938598632,0
0.9589221954345702,0.5387208938598632,0
0.9600866317749023,0.5521591186523437,0
0.9600866317749023,0.5375289916992188,0
0.9604339599609375,0.5548616409301758,0
0.9659460067749023,0.5352888107299805,0
0.9617294311523437,0.5410898208618163,0
0.9449169158935546,0.5572460174560546,0
0.9819602966308594,0.5387552261352538,0
0.9565292358398437,0.5483396530151367,0
0.9575059890747070,0.5378911972045898,0
0.9472463607788085,0.5378911972045898,0
0.9606828689575195,0.5543397903442383,0
0.9606828689575195,0.5466516494750976,0
0.9558345794677734,0.5550573348999023,0
0.9572502136230469,0.5322589874267578,0
0.9532007217407226,0.5493970870971679,0
0.9411958694458007,0.5477050781250000,0
0.9767475128173828,0.5377807617187500,0
0.9455532073974608,0.5571035385131836,0
0.9599361419677734,0.5479597091674805,0
0.9459342956542969,0.5770700454711913,0
0.9575574874877929,0.5330972671508789,0
0.9426555633544922,0.5527090072631836,0
0.9391679763793945,0.5477622985839844,0
0.9582607269287109,0.5509420394897461,0
0.9426372528076171,0.5700536727905273,0
0.9447200775146484,0.5568099975585937,0
0.9619943618774414,0.5466745376586913,0
0.9430400848388671,0.5401857376098632,0
0.9542324066162109,0.5498994827270508,0
0.9384527206420898,0.5616960525512695,0
0.9561344146728515,0.5277448654174804,0
0.9343969345092773,0.5489210128784180,0
0.9432472229003905,0.5553588867187500,0
0.9517633438110351,0.5519096374511718,0
0.9420381546020508,0.5382848739624023,0
0.9526554107666015,0.5362432479858398,0
0.9377700805664062,0.5607130050659179,0
0.9744661331176757,0.5336368560791015,0
0.9339895248413086,0.5480175018310547,0
0.9509387969970703,0.5412408828735351,0
0.9525484085083007,0.5523536682128906,0
0.9584192276000976,0.5523536682128906,0
0.9547428131103515,0.5395299911499023,0
0.9547428131103515,0.5543918609619141,0
0.9400440216064453,0.5350753784179687,0
0.9504793167114257,0.5467529296875000,0
0.9511819839477539,0.5392341613769531,0
0.9738349914550781,0.5323522567749023,0
0.9261812210083007,0.5457841873168945,0
0.9497606277465820,0.5348985671997070,0
0.9363349914550780,0.5343898773193360,0
0.9326980590820312,0.5049665451049804,0
0.9197576522827148,0.5068181991577149,0
0.9197576522827148,0.5134019851684570,0
0.9153436660766601,0.4968498229980469,0
0.9031694412231445,0.5164215087890625,0
0.9165052413940429,0.5034004211425781,0
0.9007633209228515,0.5345071792602539,0
0.8942230224609374,0.5111927032470703,0
0.8969141006469726,0.4926435470581054,0
0.9085424423217773,0.5054838180541992,0
0.9126840591430664,0.5024230957031249,0
0.9040924072265625,0.4948459625244140,0
0.9001939773559570,0.5159202575683594,0
0.9102447509765624,0.5057064056396484,0
0.9226953506469726,0.5054231643676758,0
0.9110080718994140,0.5328912734985352,0
0.9490642547607422,0.5057155609130859,0
0.9102624893188476,0.5220376968383789,0
0.9271785736083984,0.5082229614257813,0
0.9295286178588866,0.5275136947631835,0
0.9354681015014648,0.5073217391967774,0
0.9386690139770507,0.5148468017578125,0
0.9175918579101562,0.5253988265991211,0
0.9171815872192383,0.5108356475830078,0
0.9354440689086914,0.5041076660156250,0
0.9212059020996093,0.5111795425415039,0
0.9212059020996093,0.5330738067626953,0
0.9382953643798828,0.5235946655273437,0
0.9348541259765625,0.5327825546264648,0
0.9361713409423827,0.5083917617797852,0
0.9317979812622070,0.5268533706665038,0
0.9191905975341796,0.5249616622924804,0
0.9343631744384765,0.5148342132568359,0
0.9588409423828125,0.5148342132568359,0
0.9356117248535156,0.5331235885620117,0
0.9178270339965819,0.5331235885620117,0
0.9260587692260742,0.5199205398559570,0
0.9367080688476562,0.5199205398559570,0
0.9376316070556641,0.5301298141479492,0
0.9219577789306640,0.5301298141479492,0
0.9321498870849609,0.5251401901245117,0
0.9189931869506835,0.5251401901245117,0
0.9337194442749023,0.5141595840454102,0
0.9578767776489258,0.5141595840454102,0
0.9345148086547851,0.5323740005493164,0
0.9169687271118163,0.5323740005493164,0
0.9253051757812499,0.5196733474731445,0
0.9430652618408203,0.5196733474731445,0
0.9373689651489258,0.5304147720336914,0
0.9220653533935547,0.5304147720336914,0
0.9323879241943359,0.5261117935180664,0
0.9196094512939452,0.5261117935180664,0
0.9342235565185546,0.5156175613403320,0
0.9580884933471679,0.5156175613403320,0
0.9347270965576171,0.5334783554077148,0
0.9170906066894531,0.5334783554077148,0
0.9252279281616210,0.5205545425415039,0
0.9427356719970703,0.5205545425415039,0
0.9368785858154296,0.5312673568725585,0
0.9217008590698241,0.5312673568725585,0
0.9321115493774413,0.5274026870727538,0
0.9198394775390625,0.5274026870727538,0
0.9348884582519531,0.5177118301391601,0
0.9589502334594726,0.5177118301391601,0
0.9360300064086914,0.5362083435058593,0
0.9188581466674804,0.5362083435058593,0
0.9272346496582031,0.5239780426025390,0
0.9448293685913085,0.5239780426025390,0
0.9389997482299804,0.5347028732299804,0
0.9240823745727539,0.5347028732299804,0
0.9344095230102538,0.5309085845947266,0
0.9222570419311523,0.5309085845947266,0
0.9368030548095703,0.5213676452636719,0
0.9604906082153319,0.5213676452636719,0
0.9384487152099609,0.5395597457885742,0
0.9226032257080078,0.5395597457885742,0
0.9314083099365233,0.5286272048950195,0
0.9483444213867187,0.5286272048950195,0
0.9426916122436523,0.5385452270507812,0
0.9281616210937500,0.5385452270507812,0
0.9380321502685547,0.5347446441650391,0
0.9262104034423828,0.5347446441650391,0
0.9404457092285156,0.5254674911499023,0
0.9634986877441406,0.5254674911499023,0
0.9417915344238281,0.5431886672973633,0
0.9259740829467773,0.5431886672973633,0
0.9339941024780273,0.5318727493286133,0
0.9508535385131835,0.5318727493286133,0
0.9455921173095703,0.5420568466186523,0
0.9314941406249999,0.5420568466186523,0
0.9411861419677734,0.5384239196777344,0
0.9294204711914062,0.5384239196777344,0
0.9434486389160156,0.5289928436279296,0
0.9663236618041992,0.5289928436279296,0
0.9448156356811523,0.5465188980102539,0
0.9283779144287109,0.5465188980102539,0
0.9360889434814452,0.5346181869506835,0
0.9526559829711914,0.5346181869506835,0
0.9471570968627929,0.5445270538330078,0
0.9327690124511718,0.5445270538330078,0
0.9424180984497070,0.5404146194458007,0
0.9304470062255858,0.5404146194458007,0
0.9442777633666992,0.5306631088256836,0
0.9669479370117187,0.5306631088256836,0
0.9450788497924805,0.5477834701538086,0
0.9285123825073242,0.5477834701538086,0
0.9362926483154297,0.5353666305541992,0
0.9531148910522460,0.5353666305541992,0
0.9473636627197265,0.5452217102050781,0
0.9324811935424804,0.5452217102050781,0
0.9423534393310546,0.5407361984252930,0
0.9302982330322265,0.5407361984252930,0
0.9444070816040039,0.5305561065673828,0
0.9678182601928711,0.5305561065673828,0
0.9452802658081054,0.5482824325561523,0
0.9283721923828124,0.5482824325561523,0
0.9366331100463867,0.5358009338378906,0
0.9540824890136719,0.5358009338378906,0
0.9483215332031250,0.5462677001953125,0
0.9331867218017578,0.5462677001953125,0
0.9435024261474609,0.5417255401611328,0
0.9308847427368163,0.5417255401611328,0
0.9454576492309570,0.5313343048095703,0
0.9696092605590820,0.5313343048095703,0
0.9465717315673827,0.5492683410644531,0
0.9291601181030273,0.5492683410644531,0
0.9484497070312500,0.5508464813232422,0
0.9494270324707030,0.5465663909912110,0
0.9337606430053711,0.5410800933837890,0
0.9304315567016601,0.5410800933837890,0
0.9438646316528320,0.5278942108154296,0
0.9661703109741211,0.5278942108154296,0
0.9401269912719726,0.5406566619873047,0
0.9185926437377929,0.5406566619873047,0
0.9223863601684570,0.5187137603759765,0
0.9351991653442382,0.5187137603759765,0
0.9250476837158202,0.5203828811645508,0
0.9058324813842773,0.5203828811645508,0
0.9127635955810547,0.5092294692993163,0
0.8968448638916016,0.5092294692993163,0
0.9089687347412109,0.4935516357421875,0
0.9308177947998046,0.4935516357421875,0
0.9058593749999999,0.5080736160278320,0
0.8867179870605468,0.5080736160278320,0
0.8936536788940429,0.4929691314697265,0
0.9102550506591797,0.4929691314697265,0
0.9037399291992188,0.5021427154541015,0
0.8882926940917969,0.5021427154541015,0
0.8978925704956054,0.4975084304809570,0
0.8853160858154296,0.4975084304809570,0
0.8993156433105468,0.4870216369628906,0
0.9221145629882812,0.4870216369628906,0
0.8995880126953125,0.5039783477783203,0
0.8829282760620117,0.5039783477783203,0
0.8906026840209961,0.4918973922729492,0
0.9065443038940429,0.4918973922729492,0
0.9007553100585937,0.5010515213012695,0
0.8868295669555664,0.5010515213012695,0
0.8954189300537109,0.4967302322387695,0
0.9015787124633788,0.4816480636596679,0
0.8971796035766602,0.4872219085693359,0
0.9183002471923828,0.4872219085693359,0
0.8976030349731445,0.5033466339111328,0
0.8808134078979492,0.5033466339111328,0
0.8878898620605469,0.4903169631958008,0
0.9044918060302733,0.4903169631958008,0
0.8980476379394531,0.4997331619262695,0
0.8827245712280273,0.4997331619262695,0
0.8920629501342773,0.4949060440063476,0
0.8796409606933594,0.4949060440063476,0
0.8936130523681640,0.4845342636108398,0
