REDsignal,IRsignal,synced
0.6445964813232422,0.4012813568115234,0
0.6441164016723633,0.4012813568115234,0
0.6446720123291015,0.4016309738159179,0
0.6452539443969726,0.4016309738159179,0
0.6450353622436523,0.4019817352294922,0
0.6450096130371094,0.4019817352294922,0
0.6448310852050781,0.4023370742797852,0
0.6450342178344727,0.4023370742797852,0
0.6461814880371094,0.4025047302246094,0
0.6459697723388672,0.4025047302246094,0
0.6458095550537110,0.4027902603149414,0
0.6461551666259765,0.4027902603149414,0
0.6461488723754882,0.4031272888183594,0
0.6466827392578125,0.4031272888183594,0
0.6465208053588867,0.4033184051513672,0
0.6463102340698242,0.4033184051513672,0
0.6461105346679688,0.4034872055053711,0
0.6460956573486328,0.4034872055053711,0
0.6472005844116211,0.4034128189086914,0
0.6468223571777344,0.4034128189086914,0
0.6465362548828125,0.4034420013427734,0
0.6466850280761719,0.4034420013427734,0
0.6464389801025391,0.4034523010253906,0
0.6468544006347656,0.4034523010253906,0
0.6465459823608398,0.4033842086791992,0
0.6462621688842773,0.4033842086791992,0
0.6459177017211913,0.4032960891723633,0
0.6457849502563476,0.4032960891723633,0
0.6467422485351563,0.4030471801757812,0
0.6463062286376953,0.4030471801757812,0
0.6460109710693359,0.4028697967529297,0
0.6461088180541992,0.4028697967529297,0
0.6458690643310546,0.4028629302978515,0
0.6463331222534180,0.4028629302978515,0
0.6459571838378906,0.4028142929077148,0
0.6457717895507812,0.4028142929077148,0
0.6454610824584961,0.4028778076171875,0
0.6453964233398437,0.4028778076171875,0
0.6464515686035156,0.4028640747070312,0
0.6460950851440429,0.4028640747070312,0
0.6458902359008789,0.4028446197509766,0
0.6460418701171875,0.4028446197509766,0
0.6459440231323242,0.4030305862426758,0
0.6466300964355468,0.4030168533325195,0
0.6466300964355468,0.4030168533325195,0
0.6461975097656250,0.4031106948852539,0
0.6462043762207031,0.4033538818359375,0
0.6466821670532227,0.4033538818359375,0
0.6464321136474609,0.4034156799316406,0
0.6463623046875000,0.4034156799316406,0
0.6461145401000976,0.4037710189819336,0
0.6461437225341796,0.4037710189819336,0
0.6472332000732421,0.4037715911865234,0
0.6469242095947265,0.4037715911865234,0
0.6467456817626953,0.4038780212402344,0
0.6469562530517577,0.4038780212402344,0
0.6469385147094726,0.4040714263916015,0
0.6474557876586914,0.4040714263916015,0
0.6471988677978515,0.4041286468505859,0
0.6469825744628906,0.4041286468505859,0
0.6466918945312500,0.4044301986694336,0
0.6467039108276367,0.4044301986694336,0
0.6477848052978515,0.4043415069580078,0
0.6474655151367187,0.4043415069580078,0
0.6471879959106445,0.4044198989868164,0
0.6473676681518554,0.4044198989868164,0
0.6472921371459961,0.4045440673828125,0
0.6478322982788086,0.4045440673828125,0
0.6474758148193359,0.4045560836791992,0
0.6473356246948242,0.4045560836791992,0
0.6471473693847656,0.4048318862915039,0
0.6471090316772461,0.4048318862915039,0
0.6482122421264648,0.4047695159912109,0
0.6478202819824218,0.4047695159912109,0
0.6475622177124023,0.4048049926757812,0
0.6477350234985352,0.4048049926757812,0
0.6476657867431640,0.4049337387084961,0
0.6481018066406250,0.4049337387084961,0
0.6478563308715820,0.4049503326416016,0
0.6476640701293945,0.4049503326416016,0
0.6474878311157226,0.4052026748657226,0
0.6475032806396485,0.4052026748657226,0
0.6484777450561523,0.4051626205444336,0
0.6480983734130860,0.4051626205444336,0
0.6480079650878906,0.4051763534545899,0
0.6481595993041992,0.4051763534545899,0
0.6479890823364257,0.4053462982177734,0
0.6485778808593750,0.4053462982177734,0
0.6482357025146485,0.4053503036499023,0
0.6480354309082031,0.4053503036499023,0
0.6478174209594726,0.4055826187133789,0
0.6478168487548828,0.4055826187133789,0
0.6488542556762695,0.4054922103881836,0
0.6485034942626953,0.4054922103881836,0
0.6482517242431640,0.4055408477783203,0
0.6479690551757812,0.4057605743408203,0
0.6488971710205078,0.4054836273193359,0
0.6485052108764648,0.4055557250976562,0
0.6483238220214843,0.4055362701416015,0
0.6481933593750000,0.4055780410766601,0
0.6486179351806640,0.4052690505981445,0
0.6475175857543946,0.4048233032226562,0
0.6468572616577148,0.4048233032226562,0
0.6468681335449219,0.4034231185913086,0
0.6458971023559570,0.4035158157348633,0
0.6446033477783203,0.4024475097656250,0
0.6442022323608398,0.4019233703613281,0
0.6437107086181640,0.4003194808959961,0
0.6424289703369140,0.3997598648071289,0
0.6404439926147460,0.3979894638061524,0
0.6397727966308594,0.3981794357299804,0
0.6392892837524414,0.3969108581542969,0
0.6392892837524414,0.3964382171630859,0
0.6384601593017578,0.3963220596313476,0
0.6387559890747070,0.3962144851684570,0
0.6389745712280274,0.3962310791015625,0
0.6389350891113281,0.3962310791015625,0
0.6393962860107422,0.3971300125122070,0
0.6401824951171875,0.3969560623168945,0
0.6402202606201172,0.3973617553710938,0
0.6402494430541992,0.3977663040161133,0
0.6409006118774414,0.3985456466674804,0
0.6417949676513671,0.3987058639526367,0
0.6417280197143554,0.3990863800048828,0
0.6421216964721680,0.3992866516113281,0
0.6430578231811523,0.3998754501342773,0
0.6428615570068359,0.4000179290771484,0
0.6430990219116210,0.4003240585327149,0
0.6426630020141602,0.4007131576538086,0
0.6438583374023438,0.4008401870727539,0
0.6436283111572265,0.4008401870727539,0
0.6435367584228515,0.4011302947998047,0
0.6436866760253906,0.4015205383300781,0
0.6445472717285156,0.4016086578369141,0
0.6444190979003906,0.4016653060913086,0
0.6443035125732421,0.4022472381591797,0
0.6447498321533203,0.4022472381591797,0
0.6450279235839843,0.4026523590087890,0
0.6448854446411133,0.4023307800292968,0
0.6448740005493164,0.4026964187622070,0
0.6451578140258789,0.4025888442993164,0
0.6453432083129883,0.4024595260620117,0
0.6452465057373047,0.4022792816162109,0
0.6453065872192383,0.4027387619018555,0
0.6457471847534180,0.4026277542114258,0
0.6451171875000000,0.4023576736450195,0
0.6451898574829101,0.4023782730102539,0
0.6451738357543945,0.4025218963623047,0
0.6456012725830078,0.4023874282836914,0
0.6449506759643554,0.4021030426025390,0
0.6450101852416992,0.4021516799926758,0
0.6449850082397460,0.4022821426391601,0
0.6456436157226563,0.4022821426391601,0
0.6450141906738281,0.4020944595336914,0
0.6450141906738281,0.4021945953369140,0
0.6449329376220703,0.4023147583007812,0
0.6457134246826172,0.4022020339965820,0
0.6451040267944336,0.4023204803466797,0
0.6452625274658202,0.4023204803466797,0
0.6458044052124023,0.4025716781616211,0
0.6458765029907226,0.4025419235229492,0
0.6454301834106445,0.4026666641235351,0
0.6455572128295898,0.4026666641235351,0
0.6461317062377929,0.4029424667358398,0
0.6462289810180664,0.4029035568237305,0
0.6456979751586914,0.4030981063842773,0
0.6455183029174805,0.4030981063842773,0
0.6464509963989258,0.4033184051513672,0
0.6465127944946288,0.4032943725585937,0
0.6460121154785156,0.4033687591552734,0
0.6459394454956054,0.4035850524902344,0
0.6468675613403320,0.4035295486450195,0
0.6465436935424804,0.4035713195800781,0
0.6463525772094726,0.4037235260009766,0
0.6462421417236328,0.4038505554199219,0
0.6472606658935547,0.4039232254028320,0
0.6468372344970703,0.4039575576782227,0
0.6469436645507812,0.4040290832519531,0
0.6465620040893555,0.4043546676635742,0
0.6475599288940429,0.4041996002197266,0
0.6470832824707031,0.4044799804687500,0
0.6467811584472656,0.4042676925659179,0
0.6467811584472656,0.4046276092529297,0
0.6477327346801758,0.4044588088989258,0
0.6472698211669922,0.4047145843505859,0
0.6469774246215820,0.4047054290771484,0
0.6469676971435546,0.4048679351806641,0
0.6475908279418945,0.4046161651611328,0
0.6474546432495117,0.4047838211059570,0
0.6471479415893554,0.4047803878784180,0
0.6471891403198242,0.4049406051635742,0
0.6477527618408203,0.4048376083374023,0
0.6476320266723633,0.4046648025512695,0
0.6472944259643555,0.4051237106323242,0
0.6476526260375977,0.4051237106323242,0
0.6477172851562499,0.4049263000488281,0
0.6477172851562499,0.4047140121459961,0
0.6474220275878906,0.4052186965942383,0
0.6477298736572266,0.4052295684814453,0
0.6478546142578124,0.4052158355712890,0
0.6476606369018555,0.4048662185668945,0
0.6475662231445313,0.4053857803344726,0
0.6478397369384765,0.4051763534545899,0
0.6479867935180664,0.4052913665771484,0
0.6478334426879883,0.4049343109130859,0
0.6479867935180664,0.4054241180419922,0
0.6481515884399414,0.4052009582519531,0
0.6480525970458985,0.4050699234008789,0
0.6481063842773437,0.4056358337402344,0
0.6486511230468750,0.4054756164550781,0
0.6479215621948242,0.4052209854125977,0
0.6480222702026367,0.4053880691528320,0
0.6480337142944336,0.4054504394531250,0
0.6484645843505860,0.4054504394531250,0
0.6475296020507812,0.4049119949340820,0
0.6475296020507812,0.4048381805419922,0
0.6468429565429688,0.4042980194091797,0
0.6469470977783203,0.4036268234252929,0
0.6452545166015625,0.4023210525512695,0
0.6448036193847656,0.4026758193969727,0
0.6438371658325195,0.4015525817871093,0
0.6439590454101562,0.4007429122924804,0
0.6417778015136718,0.3991395950317383,0
0.6407712936401367,0.3991395950317383,0
0.6403123855590820,0.3977537155151367,0
0.6403123855590820,0.3970132827758789,0
0.6388572692871094,0.3962699890136719,0
0.6383874893188476,0.3961332321166992,0
0.6389808654785156,0.3958986282348633,0
0.6389808654785156,0.3959678649902343,0
0.6385992050170898,0.3961320877075195,0
0.6386793136596679,0.3964576721191406,0
0.6399015426635742,0.3967620849609375,0
0.6398145675659179,0.3967781066894531,0
0.6403192520141602,0.3973388671875000,0
0.6399633407592773,0.3979682922363281,0
0.6413389205932617,0.3982767105102539,0
0.6412261962890625,0.3982681274414062,0
0.6418390274047852,0.3988100051879883,0
0.6415054321289062,0.3994005203247070,0
0.6427757263183593,0.3995515823364258,0
0.6424112319946289,0.3995515823364258,0
0.6429794311523437,0.3999561309814453,0
0.6426263809204101,0.4005306243896484,0
0.6435436248779297,0.4009614944458008,0
0.6435155868530273,0.4005409240722656,0
0.6439933776855469,0.4013471603393555,0
0.6439933776855469,0.4013380050659179,0
0.6443412780761718,0.4013088226318359,0
0.6443984985351562,0.4016698837280273,0
0.6446668624877929,0.4020109176635742,0
0.6448911666870117,0.4022924423217774,0
0.6447149276733398,0.4018844604492187,0
0.6446960449218749,0.4024892807006836,0
0.6448974609375000,0.4024349212646484,0
0.6448974609375000,0.4021900177001953,0
0.6449867248535156,0.4021900177001953,0
0.6449272155761718,0.4021356582641601,0
0.6450176239013672,0.4021356582641601,0
0.6449283599853516,0.4022003173828125,0
0.6452962875366210,0.4022003173828125,0
0.6448133468627929,0.4017562866210938,0
0.6445049285888672,0.4017562866210938,0
0.6444414138793945,0.4022363662719726,0
0.6443395614624023,0.4022363662719726,0
0.6450262069702148,0.4017505645751953,0
0.6445495605468750,0.4017505645751953,0
0.6442909240722656,0.4016344070434570,0
0.6443355560302734,0.4016344070434570,0
0.6441793441772461,0.4016927719116211,0
0.6446662902832031,0.4016927719116211,0
0.6441644668579102,0.4013105392456054,0
0.6440185546875000,0.4013105392456054,0
0.6439332962036133,0.4019474029541015,0
0.6439756393432617,0.4019474029541015,0
0.6447589874267577,0.4016881942749023,0
0.6444374084472656,0.4016881942749023,0
0.6442863464355468,0.4017883300781250,0
0.6445907592773438,0.4017883300781250,0
0.6445112228393555,0.4020589828491211,0
0.6451343536376953,0.4020589828491211,0
0.6447257995605469,0.4018896102905273,0
0.6446130752563476,0.4018896102905273,0
0.6447109222412110,0.4026792526245117,0
0.6447761535644531,0.4026792526245117,0
0.6456550598144531,0.4024663925170898,0
0.6452665328979492,0.4024663925170898,0
0.6452075958251953,0.4026065826416015,0
0.6453718185424805,0.4026065826416015,0
0.6459177017211913,0.4028949737548828,0
0.6459377288818359,0.4028669357299804,0
0.6455320358276367,0.4029779434204102,0
0.6453998565673827,0.4032417297363281,0
0.6453998565673827,0.4032331466674804,0
0.6462553024291992,0.4031879425048828,0
0.6462553024291992,0.4032262802124023,0
0.6458358764648438,0.4029733657836914,0
0.6457008361816406,0.4037910461425781,0
0.6457225799560546,0.4037910461425781,0
0.6464796066284180,0.4035146713256836,0
0.6461236953735351,0.4035146713256836,0
0.6460304260253906,0.4035449981689453,0
0.6462490081787109,0.4035449981689453,0
0.6461591720581055,0.4038454055786133,0
0.6466936111450196,0.4038454055786133,0
0.6462884902954101,0.4034814834594727,0
0.6461574554443359,0.4034814834594727,0
0.6461849212646484,0.4042201995849609,0
0.6460721969604492,0.4042201995849609,0
0.6468349456787109,0.4038866043090820,0
0.6464670181274413,0.4038866043090820,0
0.6463193893432617,0.4039661407470703,0
0.6462209701538085,0.4039661407470703,0
0.6463611602783202,0.4041063308715820,0
0.6468183517456054,0.4041063308715820,0
0.6463966369628906,0.4037384033203125,0
0.6462072372436524,0.4037384033203125,0
0.6462169647216797,0.4044496536254883,0
0.6461751937866210,0.4044496536254883,0
0.6467845916748046,0.4040405273437500,0
0.6464572906494140,0.4040405273437500,0
0.6462604522705078,0.4041143417358398,0
0.6464447021484375,0.4041143417358398,0
0.6463851928710938,0.4042711257934570,0
0.6468280792236328,0.4042711257934570,0
0.6464395523071289,0.4038625717163086,0
0.6462507247924805,0.4038625717163086,0
0.6462781906127929,0.4046676635742187,0
0.6462152481079101,0.4046676635742187,0
0.6468944549560547,0.4043174743652344,0
0.6465551376342773,0.4043174743652344,0
0.6465436935424804,0.4043329238891601,0
0.6466804504394531,0.4043329238891601,0
0.6465980529785156,0.4045749664306640,0
0.6471216201782226,0.4045749664306640,0
0.6466112136840820,0.4041555404663086,0
0.6465425491333008,0.4041555404663086,0
0.6464944839477539,0.4049463272094727,0
0.6465030670166015,0.4049463272094727,0
0.6472274780273437,0.4046327590942383,0
0.6469493865966797,0.4046327590942383,0
0.6469116210937500,0.4047220230102539,0
0.6471244812011718,0.4047220230102539,0
0.6470060348510742,0.4049795150756836,0
0.6475444793701172,0.4049795150756836,0
0.6471513748168946,0.4045938491821289,0
0.6469888687133789,0.4045938491821289,0
0.6469871520996093,0.4054824829101563,0
0.6470655441284180,0.4054824829101563,0
0.6477481842041015,0.4051334381103516,0
0.6473373413085938,0.4051334381103516,0
0.6473567962646484,0.4052009582519531,0
0.6474695205688477,0.4052009582519531,0
0.6473739624023437,0.4054126739501953,0
0.6478460311889648,0.4054126739501953,0
0.6473974227905274,0.4049594879150391,0
0.6472578048706055,0.4049594879150391,0
0.6472177505493164,0.4056741714477539,0
0.6470048904418945,0.4056741714477539,0
0.6475719451904297,0.4049961090087891,0
0.6469293594360351,0.4049961090087891,0
0.6465471267700195,0.4043621063232422,0
0.6462810516357421,0.4043621063232422,0
0.6458158493041992,0.4037103652954102,0
0.6457408905029297,0.4037103652954102,0
0.6448465347290039,0.4022764205932617,0
0.6440580368041992,0.4022764205932617,0
0.6435796737670898,0.4019760131835937,0
0.6428649902343749,0.4019760131835937,0
0.6429410934448242,0.4002960205078125,0
0.6418836593627929,0.4002960205078125,0
0.6412342071533202,0.3990314483642578,0
0.6407020568847656,0.3990314483642578,0
0.6401910781860352,0.3980838775634766,0
0.6402059555053711,0.3980838775634766,0
0.6395141601562500,0.3970069885253906,0
0.6391994476318359,0.3970069885253906,0
0.6390758514404297,0.3976684570312500,0
0.6391176223754883,0.3976684570312500,0
0.6397098541259766,0.3973560333251953,0
0.6395490646362304,0.3973560333251953,0
0.6397298812866211,0.3976884841918945,0
0.6401475906372071,0.3976884841918945,0
0.6402328491210937,0.3984266281127929,0
0.6410184860229492,0.3984266281127929,0
0.6408290863037109,0.3985370635986328,0
0.6409858703613281,0.3985370635986328,0
0.6412302017211914,0.3998771667480469,0
0.6415031433105468,0.3998771667480469,0
0.6422927856445312,0.3999618530273437,0
0.6422441482543945,0.3999618530273437,0
0.6423711776733398,0.4003795623779297,0
0.6426979064941406,0.4003795623779297,0
0.6427139282226563,0.4008573532104492,0
0.6434309005737304,0.4008573532104492,0
0.6430435180664062,0.4006559371948242,0
0.6431144714355469,0.4006559371948242,0
0.6431928634643554,0.4017539978027344,0
0.6432758331298828,0.4017539978027344,0
0.6439653396606445,0.4015033721923828,0
0.6437805175781249,0.4015033721923828,0
0.6438915252685546,0.4017654418945312,0
0.6441810607910156,0.4017654418945312,0
0.6441736221313477,0.4022346496582031,0
0.6448299407958984,0.4022346496582031,0
0.6445507049560547,0.4019908905029297,0
0.6445501327514648,0.4019908905029297,0
0.6445987701416015,0.4030712127685547,0
0.6447349548339844,0.4030712127685547,0
0.6453214645385742,0.4027891159057617,0
0.6450822830200195,0.4027891159057617,0
0.6451606750488281,0.4028022766113281,0
0.6451211929321289,0.4028022766113281,0
0.6452007293701172,0.4030042648315429,0
0.6456859588623046,0.4030042648315429,0
0.6452173233032227,0.4024486541748047,0
0.6450508117675781,0.4024486541748047,0
0.6450193405151367,0.4032028198242187,0
0.6448591232299804,0.4032028198242187,0
0.6454559326171875,0.4026334762573242,0
0.6450256347656250,0.4026334762573242,0
0.6449495315551758,0.4024887084960938,0
0.6449094772338867,0.4024887084960938,0
0.6447824478149414,0.4025619506835937,0
0.6451652526855468,0.4025619506835937,0
0.6446645736694335,0.4019445419311523,0
0.6445426940917969,0.4019445419311523,0
0.6445043563842773,0.4027387619018555,0
0.6444162368774414,0.4027387619018555,0
0.6449226379394531,0.4022066116333008,0
0.6446016311645507,0.4022066116333008,0
0.6446525573730468,0.4022523880004883,0
0.6445415496826171,0.4022523880004883,0
0.6446851730346680,0.4024978637695312,0
0.6451549530029297,0.4024978637695312,0
0.6447446823120117,0.4020870208740234,0
0.6447515487670898,0.4020870208740234,0
0.6447492599487304,0.4030986785888672,0
0.6447561264038085,0.4030986785888672,0
0.6453357696533203,0.4027587890625000,0
0.6450834274291992,0.4027587890625000,0
0.6451612472534179,0.4028526306152344,0
0.6453403472900391,0.4028526306152344,0
0.6452899932861328,0.4031581878662109,0
0.6458221435546875,0.4031581878662109,0
0.6454164505004882,0.4027839660644531,0
0.6453746795654297,0.4027839660644531,0
0.6455463409423828,0.4038763046264648,0
0.6455343246459960,0.4038763046264648,0
0.6460275650024414,0.4035261154174805,0
0.6458032608032226,0.4035261154174805,0
0.6459131240844727,0.4036428451538086,0
0.6460836410522460,0.4036428451538086,0
0.6460739135742187,0.4039472579956054,0
0.6465929031372070,0.4039472579956054,0
0.6461523056030273,0.4035352706909179,0
0.6461357116699219,0.4035352706909179,0
0.6462163925170898,0.4045675277709961,0
0.6461769104003906,0.4045675277709961,0
0.6467182159423828,0.4042139053344727,0
0.6464286804199219,0.4042139053344727,0
0.6465396881103516,0.4042682647705078,0
0.6467359542846679,0.4042682647705078,0
0.6466644287109374,0.4045492172241211,0
0.6471479415893554,0.4045492172241211,0
0.6466758728027343,0.4040925979614258,0
0.6466758728027343,0.4040925979614258,0
0.6467164993286133,0.4050676345825195,0
0.6467187881469726,0.4050676345825195,0
0.6471410751342773,0.4046854019165039,0
0.6469385147094726,0.4046854019165039,0
0.6469940185546875,0.4047866821289062,0
0.6471462249755859,0.4047866821289062,0
0.6470317840576172,0.4049417495727539,0
0.6474964141845703,0.4049417495727539,0
0.6471393585205077,0.4044988632202148,0
0.6470363616943359,0.4044988632202148,0
0.6471130371093750,0.4054784774780273,0
0.6470615386962890,0.4054784774780273,0
0.6474964141845703,0.4049892425537109,0
0.6472194671630859,0.4049892425537109,0
0.6473407745361328,0.4050304412841797,0
0.6474786758422851,0.4050304412841797,0
0.6473562240600585,0.4052627563476562,0
0.6477773666381835,0.4052627563476562,0
0.6474409103393555,0.4047626495361328,0
0.6473939895629882,0.4047626495361328,0
0.6474134445190429,0.4057010650634765,0
0.6473711013793945,0.4057010650634765,0
0.6478242874145508,0.4052370071411133,0
0.6475765228271484,0.4052370071411133,0
0.6476434707641602,0.4053119659423828,0
0.6477647781372070,0.4053119659423828,0
0.6476154327392578,0.4055236816406250,0
0.6480400085449218,0.4055236816406250,0
0.6476594924926757,0.4050138473510742,0
0.6475959777832031,0.4050138473510742,0
0.6476446151733398,0.4061038970947266,0
0.6476200103759765,0.4061038970947266,0
0.6480726242065430,0.4055900573730469,0
0.6477642059326172,0.4055900573730469,0
0.6478551864624024,0.4056283950805664,0
0.6479324340820313,0.4056283950805664,0
0.6479146957397460,0.4058155059814453,0
0.6484096527099609,0.4058155059814453,0
0.6479530334472656,0.4053462982177734,0
0.6479015350341797,0.4053462982177734,0
0.6479530334472656,0.4063556671142578,0
0.6478357315063477,0.4063556671142578,0
0.6482242584228516,0.4057159423828125,0
0.6478946685791015,0.4057159423828125,0
0.6478437423706055,0.4055717468261719,0
0.6478105545043945,0.4055717468261719,0
0.6474660873413086,0.4053411483764648,0
0.6474729537963867,0.4053411483764648,0
0.6467697143554687,0.4041635513305664,0
0.6462942123413086,0.4041635513305664,0
0.6459211349487305,0.4042476654052734,0
0.6453409194946289,0.4042476654052734,0
0.6452287673950196,0.4028486251831054,0
0.6444711685180664,0.4028486251831054,0
0.6441667556762695,0.4018192291259766,0
0.6436792373657226,0.4018192291259766,0
0.6429737091064452,0.4009094238281250,0
0.6428209304809570,0.4009094238281250,0
0.6419815063476563,0.3993736267089844,0
0.6414648056030273,0.3993736267089844,0
0.6411163330078125,0.3995584487915039,0
0.6407306671142577,0.3995584487915039,0
0.6408565521240234,0.3985788345336914,0
0.6405097961425781,0.3985788345336914,0
0.6406551361083984,0.3985176086425781,0
0.6408445358276367,0.3985176086425781,0
0.6407604217529297,0.3989622116088867,0
0.6413663864135742,0.3989622116088867,0
0.6411884307861327,0.3988042831420898,0
0.6414299011230469,0.3988042831420898,0
0.6416439056396485,0.4002553939819336,0
0.6418224334716797,0.4002553939819336,0
0.6423528671264648,0.4002342224121094,0
0.6424055099487305,0.4002342224121094,0
0.6428615570068359,0.4008207321166992,0
0.6432174682617188,0.4008207321166992,0
0.6432764053344726,0.4014347076416016,0
0.6438772201538085,0.4014347076416016,0
0.6436655044555664,0.4012825012207031,0
0.6438251495361328,0.4012825012207031,0
0.6440380096435546,0.4026391983032226,0
0.6441032409667968,0.4026391983032226,0
0.6444768905639648,0.4022970199584961,0
0.6443784713745117,0.4022970199584961,0
0.6446760177612304,0.4025465011596679,0
0.6449466705322265,0.4025465011596679,0
0.6449031829833984,0.4029796600341797,0
0.6454004287719727,0.4029796600341797,0
0.6451972961425781,0.4026969909667968,0
0.6452751159667969,0.4026969909667968,0
0.6454055786132812,0.4040428161621094,0
0.6455062866210938,0.4040428161621094,0
0.6458810806274414,0.4035827636718750,0
0.6457374572753906,0.4035827636718750,0
0.6459280014038086,0.4037618637084961,0
0.6461380004882812,0.4037618637084961,0
0.6459571838378906,0.4040222167968750,0
0.6463537216186523,0.4040222167968750,0
0.6460178375244140,0.4035341262817383,0
0.6459571838378906,0.4035341262817383,0
0.6460229873657226,0.4045171737670898,0
0.6458501815795898,0.4045171737670898,0
0.6460779190063476,0.4037727355957031,0
0.6457672119140625,0.4037727355957031,0
0.6458124160766602,0.4035976409912109,0
0.6458862304687499,0.4035976409912109,0
0.6456258773803710,0.4035947799682617,0
0.6458415985107422,0.4035947799682617,0
0.6454050064086914,0.4028434753417969,0
0.6453054428100585,0.4028434753417969,0
0.6452436447143555,0.4036685943603516,0
0.6450611114501953,0.4036685943603516,0
0.6451921463012695,0.4030197143554687,0
0.6449615478515625,0.4030197143554687,0
0.6451314926147461,0.4029659271240234,0
0.6452167510986327,0.4029659271240234,0
0.6450674057006835,0.4031307220458984,0
0.6453557968139648,0.4031307220458984,0
0.6450336456298827,0.4026014328002930,0
0.6450330734252929,0.4026014328002930,0
0.6451068878173828,0.4036640167236328,0
0.6450136184692382,0.4036640167236328,0
0.6452550888061523,0.4028171539306640,0
0.6453815460205078,0.4028171539306640,0
0.6454736709594726,0.4039478302001953,0
0.6454278945922851,0.4039478302001953,0
0.6456590652465820,0.4034500122070312,0
0.6455280303955078,0.4034500122070312,0
0.6458501815795898,0.4035369873046875,0
0.6459629058837890,0.4035369873046875,0
0.6458805084228515,0.4038516998291016,0
0.6462553024291992,0.4038516998291016,0
0.6459955215454102,0.4034694671630859,0
0.6460149765014648,0.4034694671630859,0
0.6461322784423827,0.4045972824096680,0
0.6460882186889648,0.4045972824096680,0
0.6463829040527344,0.4040788650512695,0
0.6461557388305664,0.4040788650512695,0
0.6464429855346679,0.4042270660400391,0
0.6465454101562500,0.4042270660400391,0
0.6464361190795899,0.4044885635375977,0
0.6467657089233398,0.4044885635375977,0
0.6464721679687500,0.4041486740112304,0
0.6464664459228515,0.4041486740112304,0
0.6466060638427734,0.4051849365234375,0
0.6465574264526367,0.4051849365234375,0
0.6467662811279297,0.4046865463256836,0
0.6465431213378906,0.4046865463256836,0
0.6468229293823242,0.4047883987426757,0
0.6469493865966797,0.4047883987426757,0
0.6467468261718750,0.4050802230834961,0
0.6471731185913085,0.4050802230834961,0
0.6467931747436523,0.4046293258666992,0
0.6468927383422851,0.4046293258666992,0
0.6470031738281250,0.4056982040405273,0
0.6469316482543945,0.4056982040405273,0
0.6471582412719726,0.4052066802978516,0
0.6469768524169922,0.4052066802978516,0
0.6472068786621094,0.4052215576171875,0
0.6472715377807617,0.4052215576171875,0
0.6470832824707031,0.4053857803344726,0
0.6473075866699218,0.4053857803344726,0
0.6470518112182617,0.4048690795898438,0
0.6470237731933594,0.4048690795898438,0
0.6470947265625000,0.4058658599853516,0
0.6469699859619140,0.4058658599853516,0
0.6470970153808594,0.4052049636840820,0
0.6468051910400391,0.4052049636840820,0
0.6470844268798828,0.4052467346191406,0
0.6471467971801758,0.4052467346191406,0
0.6469184875488281,0.4053594589233399,0
0.6472332000732421,0.4053594589233399,0
0.6468498229980468,0.4048559188842774,0
0.6468898773193359,0.4048559188842774,0
0.6470026016235352,0.4058801651000977,0
0.6469167709350586,0.4058801651000977,0
0.6471399307250977,0.4053136825561524,0
0.6469539642333985,0.4053136825561524,0
0.6472560882568359,0.4053565979003906,0
0.6473779678344727,0.4053565979003906,0
0.6472269058227539,0.4055763244628906,0
0.6475107192993164,0.4055763244628906,0
0.6472600936889649,0.4051248550415039,0
0.6472669601440429,0.4051248550415039,0
0.6473642349243164,0.4061233520507813,0
0.6473161697387695,0.4061233520507813,0
0.6475250244140625,0.4056135177612304,0
0.6472881317138671,0.4056135177612304,0
0.6476640701293945,0.4056747436523437,0
0.6477533340454101,0.4056747436523437,0
0.6475484848022460,0.4058481216430664,0
0.6478637695312500,0.4058481216430664,0
0.6475667953491211,0.4053491592407226,0
0.6474906921386718,0.4053491592407226,0
0.6475484848022460,0.4061920166015625,0
0.6472463607788086,0.4061920166015625,0
0.6472217559814453,0.4052364349365234,0
0.6466707229614258,0.4052364349365234,0
0.6467365264892578,0.4045600891113281,0
0.6463628768920898,0.4045600891113281,0
0.6456985473632812,0.4038763046264648,0
0.6454313278198242,0.4038763046264648,0
0.6447052001953125,0.4024967193603515,0
0.6441661834716796,0.4024967193603515,0
0.6437175750732421,0.4023983001708984,0
0.6429433822631836,0.4023983001708984,0
0.6423751831054687,0.4005872726440430,0
0.6416038513183594,0.4005872726440430,0
0.6413526535034180,0.3994119644165039,0
0.6409109115600585,0.3994119644165039,0
0.6402946472167969,0.3987127304077148,0
0.6402156829833984,0.3987127304077148,0
0.6395587921142578,0.3977811813354492,0
0.6397310256958008,0.3980060577392578,0
0.6395851135253906,0.3981977462768554,0
0.6397224426269531,0.3981977462768554,0
0.6402809143066406,0.3982492446899414,0
0.6405052185058594,0.3985897064208984,0
0.6411260604858399,0.3991785049438477,0
0.6408153533935547,0.3993478775024414,0
0.6416084289550781,0.3999704360961914,0
0.6418601989746093,0.4007308959960937,0
0.6423460006713867,0.4006502151489258,0
0.6424077987670899,0.4007200241088867,0
0.6431934356689453,0.4011800765991211,0
0.6430664062500000,0.4019594192504883,0
0.6432260513305664,0.4016109466552734,0
0.6435104370117187,0.4018787384033203,0
0.6438142776489257,0.4025007247924804,0
0.6437948226928710,0.4026334762573242,0
0.6440380096435546,0.4021917343139648,0
0.6440380096435546,0.4020704269409179,0
0.6444087982177734,0.4032182693481445,0
0.6444488525390625,0.4029378890991211,0
0.6446056365966797,0.4025865554809570,0
0.6448774337768555,0.4025865554809570,0
0.6449043273925781,0.4033693313598632,0
0.6451520919799805,0.4032835006713867,0
0.6450199127197266,0.4028783798217773,0
0.6451726913452148,0.4032331466674804,0
0.6449712753295899,0.4033807754516601,0
0.6448282241821289,0.4030878067016602,0
0.6450416564941406,0.4027124404907226,0
0.6449798583984375,0.4030815124511719,0
0.6448545455932617,0.4030717849731445,0
0.6445913314819336,0.4025957107543945,0
0.6446760177612304,0.4027708053588867,0
0.6445163726806641,0.4031599044799805,0
0.6441215515136719,0.4024417877197266,0
0.6440294265747070,0.4025390625000000,0
0.6444208145141601,0.4025648117065430,0
0.6443218231201172,0.4030586242675781,0
0.6441576004028320,0.4023485183715820,0
0.6439836502075195,0.4022197723388672,0
0.6444259643554687,0.4025041580200195,0
0.6446491241455078,0.4027273178100586,0
0.6443344116210937,0.4026683807373047,0
0.6448350906372070,0.4028131484985352,0
0.6447778701782226,0.4028131484985352,0
0.6447149276733398,0.4029167175292969,0
0.6446342468261719,0.4029733657836914,0
0.6452859878540039,0.4031496047973633,0
0.6451177597045898,0.4038459777832031,0
0.6450204849243164,0.4033487319946289,0
0.6452024459838867,0.4033487319946289,0
0.6455823898315429,0.4035106658935547,0
0.6454221725463867,0.4042728424072266,0
0.6454015731811523,0.4036954879760742,0
0.6455389022827148,0.4036954879760742,0
0.6457815170288086,0.4038436889648437,0
0.6457815170288086,0.4045211791992188,0
0.6456287384033202,0.4040159225463867,0
0.6457815170288086,0.4042219161987304,0
0.6460224151611328,0.4046962738037109,0
0.6459342956542968,0.4047763824462891,0
0.6458106994628906,0.4042510986328125,0
0.6460556030273438,0.4041183471679687,0
0.6461694717407226,0.4049646377563477,0
0.6460704803466797,0.4050642013549804,0
0.6460281372070312,0.4044633865356445,0
0.6461700439453125,0.4045904159545898,0
0.6463668823242187,0.4051431655883789,0
0.6462507247924805,0.4052043914794922,0
0.6462341308593750,0.4045938491821289,0
0.6463274002075196,0.4048152923583984,0
0.6465242385864257,0.4052679061889649,0
0.6465242385864257,0.4053474426269531,0
0.6462587356567383,0.4047185897827149,0
0.6464195251464844,0.4049371719360351,0
0.6466850280761719,0.4053354263305664,0
0.6465288162231445,0.4054229736328125,0
0.6463022232055664,0.4048696517944336,0
0.6465843200683593,0.4047306060791016,0
0.6467399597167969,0.4055414199829102,0
0.6466524124145507,0.4056341171264649,0
0.6463640213012695,0.4050012588500976,0
0.6466558456420898,0.4051517486572265,0
0.6468177795410156,0.4057508468627929,0
0.6467576980590820,0.4057508468627929,0
0.6464801788330078,0.4051780700683594,0
0.6467365264892578,0.4049909591674805,0
0.6469287872314453,0.4058172225952149,0
0.6468624114990235,0.4059465408325195,0
0.6465517044067383,0.4053377151489257,0
0.6468704223632812,0.4051094055175781,0
0.6471227645874024,0.4060518264770508,0
0.6470403671264648,0.4060518264770508,0
0.6466850280761719,0.4053840637207031,0
0.6470186233520507,0.4051551818847656,0
0.6470031738281250,0.4059253692626953,0
0.6468097686767578,0.4059253692626953,0
0.6464286804199219,0.4050848007202149,0
0.6464286804199219,0.4046842575073242,0
0.6459474563598633,0.4048891067504883,0
0.6455091476440430,0.4040491104125977,0
0.6445426940917969,0.4035140991210938,0
0.6445426940917969,0.4028635025024414,0
0.6438062667846679,0.4028011322021484,0
0.6431545257568360,0.4018306732177734,0
0.6420215606689453,0.4005981445312500,0
0.6415374755859374,0.4002857208251953,0
0.6411523818969727,0.4000762939453125,0
0.6405441284179687,0.3992094039916992,0
0.6399192810058594,0.3986772537231445,0
0.6399015426635742,0.3983682632446289,0
0.6396400451660156,0.3989570617675781,0
0.6397047042846680,0.3984970092773437,0
0.6399404525756835,0.3984266281127929,0
0.6402505874633789,0.3984266281127929,0
0.6406064987182617,0.3996866226196289,0
0.6406213760375976,0.3994583129882812,0
0.6412279129028320,0.3998456954956054,0
0.6418012619018555,0.3998456954956054,0
0.6419923782348632,0.4012029647827148,0
0.6420324325561523,0.4009054183959961,0
0.6424615859985351,0.4011228561401367,0
0.6430412292480469,0.4012899398803711,0
0.6430532455444335,0.4022151947021484,0
0.6430532455444335,0.4019639968872070,0
0.6433210372924805,0.4019330978393554,0
0.6437416076660156,0.4020051956176758,0
0.6435951232910156,0.4025407791137695,0
0.6438348770141601,0.4024246215820312,0
0.6437719345092773,0.4023633956909179,0
0.6442119598388671,0.4023897171020508,0
0.6440225601196289,0.4030282974243164,0
0.6442674636840821,0.4029132843017578,0
0.6444889068603515,0.4028909683227539,0
0.6446863174438476,0.4029579162597656,0
0.6444900512695312,0.4034860610961914,0
0.6447549819946289,0.4033590316772461,0
0.6448511123657227,0.4032411575317383,0
0.6450416564941406,0.4034900665283203,0
0.6444093704223632,0.4034677505493164,0
0.6451601028442383,0.4035461425781250,0
0.6448951721191406,0.4040216445922851,0
0.6443790435791016,0.4032823562622070,0
0.6442783355712890,0.4034065246582031,0
0.6450204849243164,0.4034116744995117,0
0.6446966171264649,0.4038425445556640,0
0.6442480087280273,0.4030883789062500,0
0.6440814971923828,0.4032468795776367,0
0.6446662902832031,0.4031244277954101,0
0.6445375442504883,0.4036439895629882,0
0.6440334320068359,0.4029853820800781,0
0.6439933776855469,0.4031421661376953,0
0.6446840286254882,0.4031610488891602,0
0.6445444107055663,0.4036365509033203,0
0.6442457199096679,0.4032154083251953,0
0.6444837570190429,0.4033767700195313,0
0.6447303771972656,0.4038888931274414,0
0.6447738647460938,0.4038888931274414,0
0.6451023101806640,0.4042230606079101,0
0.6447950363159179,0.4038059234619141,0
0.6451395034790038,0.4038059234619141,0
0.6456413269042969,0.4040182113647461,0
0.6455675125122070,0.4040182113647461,0
0.6454164505004882,0.4041612625122070,0
0.6456104278564453,0.4041612625122070,0
0.6454862594604492,0.4042030334472656,0
0.6457557678222656,0.4042030334472656,0
0.6457586288452148,0.4049142837524414,0
0.6457225799560546,0.4049142837524414,0
0.6455417633056640,0.4045921325683594,0
0.6454668045043945,0.4045921325683594,0
0.6464544296264648,0.4047288894653320,0
0.6462593078613281,0.4047288894653320,0
0.6460464477539062,0.4048707962036133,0
0.6462301254272461,0.4048707962036133,0
0.6461259841918945,0.4047586441040039,0
0.6464303970336914,0.4047586441040039,0
0.6463674545288086,0.4054372787475586,0
0.6462667465209960,0.4054372787475586,0
0.6459943771362304,0.4050962448120117,0
0.6459600448608398,0.4050962448120117,0
0.6468017578124999,0.4051528930664062,0
0.6466575622558594,0.4051528930664062,0
0.6464635848999023,0.4052610397338867,0
0.6465803146362304,0.4052610397338867,0
0.6465105056762696,0.4051809310913086,0
0.6467851638793946,0.4051809310913086,0
0.6466958999633788,0.4057193756103515,0
0.6466335296630860,0.4057193756103515,0
0.6463205337524414,0.4053863525390625,0
0.6462089538574218,0.4053863525390625,0
0.6470603942871094,0.4054212570190430,0
0.6469110488891602,0.4054212570190430,0
0.6466707229614258,0.4054727554321289,0
0.6468355178833007,0.4054727554321289,0
0.6467033386230469,0.4053302764892578,0
0.6469482421875000,0.4053302764892578,0
0.6467943191528320,0.4059276580810547,0
0.6467542648315430,0.4059276580810547,0
0.6464887619018554,0.4055334091186523,0
0.6463874816894531,0.4055334091186523,0
0.6472343444824219,0.4055723190307617,0
0.6470466613769531,0.4055723190307617,0
0.6468137741088867,0.4056226730346680,0
0.6469442367553710,0.4056226730346680,0
0.6468984603881835,0.4055459976196289,0
0.6471736907958984,0.4055459976196289,0
0.6469940185546875,0.4060729980468750,0
0.6467863082885742,0.4060729980468750,0
0.6465225219726562,0.4057136535644531,0
0.6464303970336914,0.4057136535644531,0
0.6473836898803711,0.4056987762451172,0
0.6470918655395508,0.4056987762451172,0
0.6468835830688476,0.4057056427001953,0
0.6470443725585937,0.4057056427001953,0
0.6467760086059570,0.4055717468261719,0
0.6470066070556640,0.4055717468261719,0
0.6467668533325195,0.4057880401611328,0
0.6463697433471679,0.4057880401611328,0
0.6458415985107422,0.4049325942993164,0
0.6454256057739257,0.4049325942993164,0
0.6459377288818359,0.4041704177856445,0
0.6452590942382812,0.4041704177856445,0
0.6446256637573242,0.4033624649047852,0
0.6442331314086914,0.4033624649047852,0
0.6436460494995117,0.4023330688476562,0
0.6436866760253906,0.4023330688476562,0
0.6421977996826171,0.4017768859863281,0
0.6422790527343750,0.4008716583251953,0
0.6422790527343750,0.4004219055175781,0
0.6412994384765625,0.4004219055175781,0
0.6413978576660156,0.3995864868164062,0
0.6408439636230469,0.3995864868164062,0
0.6403804779052734,0.3991413116455078,0
0.6402809143066406,0.3991413116455078,0
0.6401447296142578,0.3988826751708984,0
0.6407180786132812,0.3988826751708984,0
0.6404525756835937,0.3994228363037109,0
0.6404445648193359,0.3994228363037109,0
0.6402614593505859,0.3995092391967773,0
0.6404348373413086,0.3995092391967773,0
0.6416215896606445,0.3999389648437500,0
0.6416679382324219,0.3999389648437500,0
0.6416130065917969,0.4005580902099609,0
0.6419769287109375,0.4005580902099609,0
0.6421903610229492,0.4009643554687500,0
0.6427539825439453,0.4009643554687500,0
0.6427453994750977,0.4017889022827149,0
0.6429290771484375,0.4017889022827149,0
0.6428220748901367,0.4019102096557617,0
0.6428775787353516,0.4019102096557617,0
0.6439899444580078,0.4021774291992187,0
0.6438262939453124,0.4021774291992187,0
0.6436969757080078,0.4024606704711914,0
0.6439178466796874,0.4024606704711914,0
0.6438079833984375,0.4025711059570312,0
0.6442245483398438,0.4025711059570312,0
0.6441644668579102,0.4030408859252930,0
0.6440963745117188,0.4030408859252930,0
0.6438772201538085,0.4029916763305664,0
0.6438777923583984,0.4029916763305664,0
0.6449501037597656,0.4032056808471680,0
0.6448843002319335,0.4032056808471680,0
0.6446285247802734,0.4033916473388672,0
0.6448356628417968,0.4033916473388672,0
0.6448356628417968,0.4034626007080078,0
0.6452030181884766,0.4034626007080078,0
0.6450845718383789,0.4039186477661132,0
0.6450319290161133,0.4039186477661132,0
0.6447280883789063,0.4037801742553711,0
0.6446451187133789,0.4037801742553711,0
0.6456190109252929,0.4037475585937500,0
0.6453151702880859,0.4037475585937500,0
0.6451143264770508,0.4037618637084961,0
0.6451801300048828,0.4037618637084961,0
0.6449026107788086,0.4036222457885742,0
0.6452236175537109,0.4036222457885742,0
0.6449953079223633,0.4038259506225586,0
0.6447103500366210,0.4038259506225586,0
0.6442583084106445,0.4034437179565429,0
0.6441032409667968,0.4034437179565429,0
0.6450222015380859,0.4032732009887695,0
0.6446376800537109,0.4032732009887695,0
0.6442600250244140,0.4031473159790039,0
0.6444139480590820,0.4031473159790039,0
0.6441947937011718,0.4030380249023438,0
0.6445060729980469,0.4030380249023438,0
0.6442302703857422,0.4032268524169922,0
0.6440671920776367,0.4032268524169922,0
0.6436895370483399,0.4031358718872070,0
0.6436952590942383,0.4031358718872070,0
0.6447641372680664,0.4031879425048828,0
0.6444923400878906,0.4031879425048828,0
0.6443178176879882,0.4032331466674804,0
0.6444837570190429,0.4032331466674804,0
0.6444208145141601,0.4033206939697265,0
0.6448602676391602,0.4033206939697265,0
0.6447423934936524,0.4036663055419922,0
0.6446617126464843,0.4036663055419922,0
0.6443527221679687,0.4037618637084961,0
0.6443332672119141,0.4037618637084961,0
0.6454473495483398,0.4037715911865234,0
0.6452178955078125,0.4037715911865234,0
0.6450290679931641,0.4039455413818359,0
0.6452213287353515,0.4039455413818359,0
0.6451560974121093,0.4040920257568359,0
0.6455881118774414,0.4040920257568359,0
0.6454416275024414,0.4043964385986328,0
0.6453186035156250,0.4043964385986328,0
0.6451034545898438,0.4043798446655273,0
0.6451583862304687,0.4043798446655273,0
0.6461311340332031,0.4044799804687500,0
0.6459560394287109,0.4044799804687500,0
0.6457723617553711,0.4045738220214843,0
0.6459577560424804,0.4045738220214843,0
0.6458541870117187,0.4047197341918945,0
0.6462364196777344,0.4047197341918945,0
0.6460796356201172,0.4049480438232422,0
0.6459423065185547,0.4049480438232422,0
0.6457162857055664,0.4049737930297851,0
0.6456876754760742,0.4049737930297851,0
0.6467239379882812,0.4050001144409179,0
0.6464601516723633,0.4050001144409179,0
0.6461688995361328,0.4050447463989258,0
0.6463394165039062,0.4050447463989258,0
0.6462724685668945,0.4051631927490234,0
0.6467296600341796,0.4051631927490234,0
0.6464624404907227,0.4053628921508789,0
0.6463010787963867,0.4053628921508789,0
0.6460121154785156,0.4053754806518555,0
0.6459743499755859,0.4053754806518555,0
0.6470598220825196,0.4053142547607422,0
0.6467325210571289,0.4053142547607422,0
0.6464733123779297,0.4053657531738281,0
0.6466753005981445,0.4053657531738281,0
0.6465305328369141,0.4054962158203125,0
0.6469974517822266,0.4054962158203125,0
0.6467445373535156,0.4056106567382812,0
0.6466335296630860,0.4056106567382812,0
0.6463840484619140,0.4057044982910156,0
0.6463445663452149,0.4057044982910156,0
0.6474105834960937,0.4056512832641602,0
0.6470512390136719,0.4056512832641602,0
0.6468589782714843,0.4057542800903320,0
0.6464578628540039,0.4057542800903320,0
0.6468830108642578,0.4057920455932617,0
0.6461757659912110,0.4057920455932617,0
0.6456916809082031,0.4058767318725586,0
0.6468898773193359,0.4058767318725586,0
0.6465557098388671,0.4058881759643554,0
0.6464939117431641,0.4058881759643554,0
0.6475593566894531,0.4057874679565430,0
0.6471799850463867,0.4057874679565430,0
0.6469116210937500,0.4057565689086914,0
0.6469116210937500,0.4057565689086914,0
0.6466787338256835,0.4056449890136719,0
0.6469614028930664,0.4056449890136719,0
0.6465700149536132,0.4053331375122070,0
0.6460927963256836,0.4053331375122070,0
0.6440986633300781,0.4047586441040039,0
0.6449106216430663,0.4047586441040039,0
0.6455331802368164,0.4039152145385742,0
0.6446823120117188,0.4039152145385742,0
0.6440151214599609,0.4029458999633789,0
0.6431619644165039,0.4029458999633789,0
0.6430532455444335,0.4021368026733398,0
0.6429393768310546,0.4021368026733398,0
0.6422000885009765,0.4011068344116211,0
0.6414911270141601,0.4011068344116211,0
0.6403129577636718,0.4001850128173828,0
0.6407552719116211,0.4001850128173828,0
0.6409881591796874,0.3994234085083008,0
0.6403541564941406,0.3994234085083008,0
0.6399290084838867,0.3990377426147461,0
0.6399873733520508,0.3990377426147461,0
0.6399438858032226,0.3989971160888672,0
0.6403753280639648,0.3989971160888672,0
0.6401716232299804,0.3992145538330078,0
0.6401830673217773,0.3992145538330078,0
0.6401968002319336,0.3997558593750000,0
0.6403450012207031,0.3997558593750000,0
0.6415906906127929,0.4001901626586914,0
0.6415317535400390,0.4001901626586914,0
0.6415271759033203,0.4006834030151367,0
0.6419454574584961,0.4006834030151367,0
0.6421005249023437,0.4012498855590820,0
0.6427625656127930,0.4012498855590820,0
0.6427030563354492,0.4016429901123047,0
0.6426647186279296,0.4016429901123047,0
0.6425731658935546,0.4021202087402344,0
0.6426538467407227,0.4021202087402344,0
0.6438806533813476,0.4022718429565429,0
0.6435407638549805,0.4022718429565429,0
0.6433708190917968,0.4025224685668945,0
0.6421571731567383,0.4025224685668945,0
0.6435316085815429,0.4027502059936524,0
0.6440683364868164,0.4027502059936524,0
0.6441118240356445,0.4029682159423828,0
0.6437604904174804,0.4029682159423828,0
0.6435968399047851,0.4031970977783203,0
0.6436477661132812,0.4031970977783203,0
0.6447687149047852,0.4033727645874023,0
0.6444723129272460,0.4033727645874023,0
0.6443258285522461,0.4035318374633789,0
0.6446050643920899,0.4035318374633789,0
0.6445924758911132,0.4038064956665039,0
0.6451286315917969,0.4038064956665039,0
0.6448276519775390,0.4038888931274414,0
0.6447481155395508,0.4038888931274414,0
0.6445369720458984,0.4041149139404297,0
0.6445758819580077,0.4041149139404297,0
0.6455520629882813,0.4039936065673828,0
0.6451972961425781,0.4039936065673828,0
0.6448694229125976,0.4040210723876953,0
0.6450376510620117,0.4040210723876953,0
0.6449186325073242,0.4040994644165039,0
0.6453958511352539,0.4040994644165039,0
0.6450290679931641,0.4039043426513672,0
0.6447629928588867,0.4039043426513672,0
0.6445238113403320,0.4039873123168945,0
0.6444700241088867,0.4039873123168945,0
0.6454147338867188,0.4037624359130859,0
0.6449375152587891,0.4037624359130859,0
0.6447097778320312,0.4036954879760742,0
0.6448070526123046,0.4036954879760742,0
0.6447195053100586,0.4037956237792968,0
0.6451538085937499,0.4037956237792968,0
0.6447755813598632,0.4035638809204101,0
0.6446039199829101,0.4035638809204101,0
0.6443035125732421,0.4037979125976562,0
0.6443532943725586,0.4037979125976562,0
0.6453546524047852,0.4036943435668945,0
0.6450044631958007,0.4036943435668945,0
0.6447349548339844,0.4037532806396484,0
0.6449346542358398,0.4037532806396484,0
0.6449478149414062,0.4039896011352539,0
0.6455131530761719,0.4039896011352539,0
0.6451549530029297,0.4038173675537109,0
0.6450027465820313,0.4038173675537109,0
0.6449867248535156,0.4043106079101562,0
0.6449998855590821,0.4043106079101562,0
0.6460247039794922,0.4042722702026367,0
0.6455978393554688,0.4042722702026367,0
0.6455068588256836,0.4043598175048828,0
0.6456842422485352,0.4043598175048828,0
0.6455715179443359,0.4045886993408203,0
0.6461099624633789,0.4045886993408203,0
0.6457723617553711,0.4045160293579101,0
0.6456836700439453,0.4045160293579101,0
0.6454988479614258,0.4049377441406250,0
0.6455457687377929,0.4049377441406250,0
0.6465488433837890,0.4047803878784180,0
0.6461483001708984,0.4047803878784180,0
0.6459817886352539,0.4049177169799805,0
0.6443206787109375,0.4051460266113281,0
0.6466255187988281,0.4050464630126953,0
0.6462936401367188,0.4050464630126953,0
0.6460046768188477,0.4051122665405273,0
0.6462398529052734,0.4051122665405273,0
0.6461912155151367,0.4052822113037109,0
0.6466661453247070,0.4052822113037109,0
0.6462770462036133,0.4051288604736328,0
0.6460161209106445,0.4051288604736328,0
0.6458318710327148,0.4055150985717773,0
0.6457975387573242,0.4055150985717773,0
0.6467720031738281,0.4053062438964843,0
0.6463594436645508,0.4053062438964843,0
0.6461505889892578,0.4052816390991211,0
0.6462793350219727,0.4052816390991211,0
0.6461643218994141,0.4054430007934570,0
0.6466627120971680,0.4054430007934570,0
0.6462535858154297,0.4052610397338867,0
0.6460241317749024,0.4052610397338867,0
0.6459377288818359,0.4057010650634765,0
0.6459320068359374,0.4057010650634765,0
0.6468046188354492,0.4054807662963867,0
0.6464281082153320,0.4054807662963867,0
0.6462215423583985,0.4055259704589844,0
0.6463119506835937,0.4055259704589844,0
0.6462415695190430,0.4056472778320312,0
0.6467845916748046,0.4056472778320312,0
0.6463605880737304,0.4054864883422851,0
0.6460830688476562,0.4054864883422851,0
0.6459274291992188,0.4059247970581055,0
0.6459812164306641,0.4059247970581055,0
0.6469264984130859,0.4056449890136719,0
0.6465087890625000,0.4056449890136719,0
0.6463050842285156,0.4056467056274414,0
0.6464967727661133,0.4056467056274414,0
0.6462158203125000,0.4057680130004883,0
0.6466775894165039,0.4057680130004883,0
0.6461139678955078,0.4053514480590820,0
0.6457414627075195,0.4053514480590820,0
0.6454719543457031,0.4053720474243164,0
0.6451274871826171,0.4053720474243164,0
0.6456956863403320,0.4045148849487304,0
0.6447978973388672,0.4045148849487304,0
0.6442417144775391,0.4036645889282227,0
0.6439567565917969,0.4036645889282227,0
0.6434257507324218,0.4029922485351562,0
0.6433948516845703,0.4029922485351562,0
0.6425354003906250,0.4017837524414062,0
0.6417669296264649,0.4017837524414062,0
0.6414619445800781,0.4012567520141602,0
0.6408267974853515,0.4012567520141602,0
0.6412639617919922,0.4000602722167969,0
0.6404033660888672,0.4000602722167969,0
0.6399301528930664,0.3992786407470703,0
0.6397407531738281,0.3992786407470703,0
0.6395324707031250,0.3990440368652344,0
0.6399845123291016,0.3990440368652344,0
0.6395044326782227,0.3987888336181640,0
0.6393648147583008,0.3987888336181640,0
0.6394186019897461,0.3994400024414063,0
0.6395851135253906,0.3994400024414063,0
0.6405710220336914,0.3996047973632812,0
0.6404434204101562,0.3996047973632812,0
0.6404256820678711,0.3999910354614258,0
0.6408256530761719,0.3999910354614258,0
0.6409893035888672,0.4006891250610352,0
0.6417692184448242,0.4006891250610352,0
0.6416324615478516,0.4009534835815430,0
0.6415975570678710,0.4009534835815430,0
0.6416856765747070,0.4018243789672851,0
0.6419397354125976,0.4018243789672851,0
0.6429576873779297,0.4019348144531250,0
0.6427734374999999,0.4019348144531250,0
0.6426898956298828,0.4021854400634766,0
0.6429405212402344,0.4021854400634766,0
0.6429777145385742,0.4025356292724609,0
0.6435865402221680,0.4025356292724609,0
0.6432140350341796,0.4010673522949219,0
0.6431322097778320,0.4010673522949219,0
0.6432025909423827,0.4031764984130859,0
0.6433113098144531,0.4031764984130859,0
0.6441810607910156,0.4030878067016602,0
0.6439384460449219,0.4030878067016602,0
0.6438211441040039,0.4033596038818359,0
0.6441856384277344,0.4033596038818359,0
0.6441644668579102,0.4036983489990234,0
0.6447652816772461,0.4036983489990234,0
0.6444849014282227,0.4035747528076172,0
0.6442857742309570,0.4035747528076172,0
0.6443538665771484,0.4043014526367187,0
0.6444099426269531,0.4043014526367187,0
0.6452682495117187,0.4039913177490234,0
0.6448865890502929,0.4039913177490234,0
0.6448087692260742,0.4040393829345703,0
0.6448253631591797,0.4040393829345703,0
0.6433095932006836,0.4041149139404297,0
0.6451566696166992,0.4041149139404297,0
0.6446926116943359,0.4037349700927734,0
0.6444505691528321,0.4037349700927734,0
0.6443572998046875,0.4042802810668945,0
0.6441965103149414,0.4042802810668945,0
0.6449632644653320,0.4037544250488281,0
0.6444734573364258,0.4037544250488281,0
0.6443155288696288,0.4035799026489258,0
0.6444042205810546,0.4035799026489258,0
0.6442989349365235,0.4037103652954102,0
0.6448013305664062,0.4037103652954102,0
0.6443578720092773,0.4032388687133789,0
0.6441919326782226,0.4032388687133789,0
0.6441690444946289,0.4039478302001953,0
0.6442279815673828,0.4039478302001953,0
0.6450754165649414,0.4037143707275391,0
0.6448139190673828,0.4037143707275391,0
0.6447870254516601,0.4038099288940429,0
0.6449975967407227,0.4038099288940429,0
0.6449838638305664,0.4041234970092774,0
0.6455738067626953,0.4041234970092774,0
0.6451858520507813,0.4038339614868164,0
0.6450450897216796,0.4038339614868164,0
0.6452030181884766,0.4046482086181640,0
0.6452487945556641,0.4046482086181640,0
0.6460000991821289,0.4043798446655273,0
0.6457214355468750,0.4043798446655273,0
0.6456939697265625,0.4044525146484375,0
0.6457826614379882,0.4044525146484375,0
0.6458393096923828,0.4032835006713867,0
0.6463926315307617,0.4032835006713867,0
0.6459783554077149,0.4045103073120117,0
0.6458765029907226,0.4045103073120117,0
0.6459291458129882,0.4054533004760742,0
0.6459262847900390,0.4054533004760742,0
0.6467851638793946,0.4051637649536133,0
0.6463422775268555,0.4053474426269531,0
0.6463594436645508,0.4057451248168945,0
0.6464864730834960,0.4056444168090820,0
0.6466650009155274,0.4056055068969727,0
0.6464962005615235,0.4051563262939453,0
0.6466175079345703,0.4060220718383789,0
0.6467720031738281,0.4057348251342773,0
0.6468297958374023,0.4053365707397461,0
0.6467754364013671,0.4052793502807617,0
0.6468492507934570,0.4060083389282226,0
0.6473848342895507,0.4058412551879882,0
0.6469270706176757,0.4055225372314453,0
0.6469270706176757,0.4058229446411133,0
0.6469528198242187,0.4060409545898437,0
0.6469614028930664,0.4060787200927734,0
0.6468194961547852,0.4055860519409180,0
0.6467645645141601,0.4064300537109375,0
0.6469940185546875,0.4061290740966797,0
0.6470689773559570,0.4062767028808594,0
0.6469161987304687,0.4061267852783203,0
0.6469699859619140,0.4066257476806641,0
0.6475513458251952,0.4062372207641601,0
0.6471548080444336,0.4058704376220703,0
0.6470478057861327,0.4067573547363281,0
0.6471794128417968,0.4065507888793945,0
0.6471673965454101,0.4064517974853515,0
0.6470552444458008,0.4060031890869141,0
0.6469562530517577,0.4067836761474609,0
0.6471078872680663,0.4064277648925781,0
0.6470581054687500,0.4063161849975586,0
0.6466541290283203,0.4062463760375977,0
0.6464023590087891,0.4064924240112305,0
0.6460412979125977,0.4055065155029297,0
0.6460292816162109,0.4048599243164062,0
0.6451520919799805,0.4049079895019531,0
0.6447927474975585,0.4049079895019531,0
0.6438892364501952,0.4031856536865234,0
0.6433147430419922,0.4026969909667968,0
0.6422607421875000,0.4026964187622070,0
0.6424833297729492,0.4019090652465820,0
0.6415437698364258,0.4004608154296875,0
0.6411191940307617,0.3999383926391601,0
0.6405372619628906,0.4000396728515625,0
0.6407260894775391,0.4000396728515625,0
0.6401744842529297,0.3992883682250977,0
0.6402133941650391,0.4003166198730468,0
0.6404451370239258,0.4001546859741211,0
0.6408777236938477,0.4000734329223632,0
0.6413154602050781,0.4000734329223632,0
0.6415815353393555,0.4015085220336914,0
0.6416988372802734,0.4014141082763672,0
0.6423379898071289,0.4003726959228516,0
0.6426223754882813,0.4016012191772461,0
0.6431465148925781,0.4028085708618164,0
0.6437776565551757,0.4026351928710937,0
0.6436328887939453,0.4025716781616211,0
0.6437582015991211,0.4030649185180664,0
0.6440511703491211,0.4035140991210938,0
0.6444477081298828,0.4035140991210938,0
0.6444362640380860,0.4031999588012695,0
0.6444362640380860,0.4029991149902344,0
0.6445146560668945,0.4039815902709961,0
0.6449037551879883,0.4039735794067383,0
0.6448951721191406,0.4037738800048828,0
0.6451154708862304,0.4041893005371094,0
0.6448213577270507,0.4045509338378906,0
0.6447349548339844,0.4044399261474609,0
0.6454078674316406,0.4048044204711914,0
0.6456115722656249,0.4048044204711914,0
0.6459680557250976,0.4043958663940430,0
0.6458215713500977,0.4038414001464843,0
0.6457592010498047,0.4050207138061523,0
0.6458284378051757,0.4050207138061523,0
0.6462633132934570,0.4053634643554687,0
0.6462633132934570,0.4052238464355469,0
0.6456098556518555,0.4053136825561524,0
0.6462856292724609,0.4056982040405273,0
0.6467994689941406,0.4054441452026367,0
0.6466461181640625,0.4054573059082031,0
0.6473098754882812,0.4056209564208984,0
0.6471021652221679,0.4062555313110351,0
0.6477235794067383,0.4058275222778320,0
0.6476846694946289,0.4058710098266601,0
0.6482625961303711,0.4059871673583984,0
0.6480337142944336,0.4066944122314453,0
0.6487169265747070,0.4062852859497070,0
0.6486619949340821,0.4062652587890625,0
0.6494733810424804,0.4066308975219726,0
0.6493068695068359,0.4073844909667969,0
0.6500020980834961,0.4069484710693359,0
0.6498968124389648,0.4069862365722656,0
0.6504215240478516,0.4070989608764649,0
0.6501995086669922,0.4078880310058594,0
0.6505731582641602,0.4073347091674804,0
0.6505611419677734,0.4075561523437500,0
0.6506835937500000,0.4078639984130859,0
0.6506835937500000,0.4080711364746094,0
0.6509496688842773,0.4075017929077148,0
0.6507230758666992,0.4077014923095703,0
0.6507282257080078,0.4079275131225586,0
0.6506315231323242,0.4081901550292968,0
0.6506103515625000,0.4075246810913086,0
0.6507099151611327,0.4071950912475586,0
0.6507019042968750,0.4081764221191406,0
0.6505353927612304,0.4081764221191406,0
0.6504301071166992,0.4075618743896484,0
0.6504878997802734,0.4071481704711914,0
0.6502910614013672,0.4080127716064453,0
0.6501806259155273,0.4076757431030273,0
0.6500850677490234,0.4074668884277344,0
0.6500850677490234,0.4070045471191406,0
0.6500444412231445,0.4078285217285156,0
0.6499855041503906,0.4075178146362304,0
0.6497777938842774,0.4072425842285156,0
0.6497337341308593,0.4067602157592773,0
0.6493875503540039,0.4076539993286133,0
0.6494968414306640,0.4072872161865234,0
0.6493005752563477,0.4071865081787109,0
0.6491197586059571,0.4066669464111328,0
0.6490991592407226,0.4076007843017578,0
0.6492433547973633,0.4072299957275390,0
0.6491987228393554,0.4067384719848633,0
0.6493028640747071,0.4067384719848633,0
0.6490934371948242,0.4077781677246093,0
0.6492822647094726,0.4071836471557617,0
0.6491752624511719,0.4072477340698242,0
0.6487718582153320,0.4073879241943359,0
0.6489578247070312,0.4067413330078125,0
0.6491203308105469,0.4070852279663086,0
0.6486591339111328,0.4072568893432617,0
0.6484004974365234,0.4074308395385742,0
0.6477298736572266,0.4063516616821289,0
0.6478569030761718,0.4060506820678711,0
0.6470438003540039,0.4055271148681641,0
0.6463737487792969,0.4057479858398437,0
0.6453609466552734,0.4042047500610351,0
0.6455183029174805,0.4034442901611328,0
0.6445758819580077,0.4033779144287109,0
0.6440780639648437,0.4033779144287109,0
0.6429285049438477,0.4018049240112305,0
0.6430955886840820,0.4009283065795898,0
0.6422372817993164,0.4011062622070312,0
0.6419191360473633,0.4004041671752930,0
0.6415151596069336,0.4000579833984375,0
0.6415151596069336,0.3995910644531250,0
0.6416519165039062,0.4006135940551758,0
0.6416479110717773,0.4004161834716797,0
0.6420181274414062,0.4006273269653320,0
0.6423225402832031,0.4001220703125000,0
0.6428363800048827,0.4016555786132812,0
0.6428363800048827,0.4014324188232422,0
0.6437690734863281,0.4015514373779297,0
0.6439281463623047,0.4021659851074219,0
0.6443201065063476,0.4028589248657227,0
0.6447898864746093,0.4028886795043945,0
0.6449924468994140,0.4026992797851562,0
0.6451749801635742,0.4040147781372070,0
0.6452362060546875,0.4040147781372070,0
0.6454198837280273,0.4035861968994141,0
0.6453489303588867,0.4035861968994141,0
0.6458118438720702,0.4038562774658203,0
0.6460784912109375,0.4038562774658203,0
0.6459177017211913,0.4042642593383789,0
0.6463502883911133,0.4042642593383789,0
0.6462118148803710,0.4040073394775390,0
0.6463771820068359,0.4040073394775390,0
0.6465099334716796,0.4052473068237304,0
0.6465259552001953,0.4052473068237304,0
0.6466329574584960,0.4048530578613281,0
0.6465734481811524,0.4048530578613281,0
0.6470249176025390,0.4050859451293945,0
0.6471731185913085,0.4050859451293945,0
0.6469905853271484,0.4053022384643555,0
0.6472738265991210,0.4053022384643555,0
0.6470375061035156,0.4049640655517578,0
0.6470861434936523,0.4049640655517578,0
0.6471113204956055,0.4059133529663086,0
0.6468423843383789,0.4059133529663086,0
0.6467628479003906,0.4050928115844726,0
0.6465242385864257,0.4050928115844726,0
0.6467994689941406,0.4049663543701172,0
0.6467016220092773,0.4049663543701172,0
0.6463605880737304,0.4048719406127930,0
0.6463600158691406,0.4048719406127930,0
0.6459960937500000,0.4041961669921875,0
0.6460641860961914,0.4041961669921875,0
0.6458948135375976,0.4049766540527344,0
0.6456453323364257,0.4049766540527344,0
0.6456018447875976,0.4040760040283203,0
0.6452957153320312,0.4040760040283203,0
0.6456808090209961,0.4040136337280273,0
0.6457105636596679,0.4040136337280273,0
0.6454267501831055,0.4041395187377930,0
0.6456825256347656,0.4041395187377930,0
0.6454107284545898,0.4037469863891601,0
0.6456001281738281,0.4037469863891601,0
0.6456178665161133,0.4046825408935547,0
0.6454748153686524,0.4046825408935547,0
0.6454038619995117,0.4041091918945313,0
0.6453861236572266,0.4041091918945313,0
0.6458318710327148,0.4042934417724609,0
0.6459125518798828,0.4042934417724609,0
0.6457603454589843,0.4044982910156250,0
0.6460498809814453,0.4044982910156250,0
0.6459033966064452,0.4042528152465820,0
0.6460922241210937,0.4042528152465820,0
0.6461362838745117,0.4053199768066406,0
0.6460922241210937,0.4053199768066406,0
0.6461013793945313,0.4048267364501953,0
0.6460475921630859,0.4048267364501953,0
0.6465305328369141,0.4050745010375976,0
0.6466283798217773,0.4050745010375976,0
0.6464664459228515,0.4052896499633789,0
0.6467948913574219,0.4052896499633789,0
0.6465820312500000,0.4050436019897461,0
0.6467330932617187,0.4050436019897461,0
0.6468681335449219,0.4061119079589844,0
0.6467697143554687,0.4061119079589844,0
0.6467159271240234,0.4055660247802734,0
0.6466753005981445,0.4055660247802734,0
0.6472057342529297,0.4057239532470703,0
0.6472463607788086,0.4057239532470703,0
0.6471067428588867,0.4059488296508789,0
0.6473293304443359,0.4059488296508789,0
0.6470895767211914,0.4056501388549805,0
0.6472675323486328,0.4056501388549805,0
0.6473207473754883,0.4066783905029297,0
0.6471977233886719,0.4066783905029297,0
0.6471359252929687,0.4060626983642578,0
0.6470643997192382,0.4060626983642578,0
0.6477035522460938,0.4061965942382812,0
0.6476434707641602,0.4061965942382812,0
0.6474054336547851,0.4064014434814453,0
0.6476348876953125,0.4064014434814453,0
0.6474792480468750,0.4060609817504883,0
0.6476423263549804,0.4060609817504883,0
0.6476755142211914,0.4070091247558594,0
0.6475210189819336,0.4070091247558594,0
0.6474283218383788,0.4063962936401367,0
0.6473630905151367,0.4063962936401367,0
0.6478946685791015,0.4064752578735352,0
0.6478425979614257,0.4064752578735352,0
0.6476514816284179,0.4065914154052734,0
0.6477905273437500,0.4065914154052734,0
0.6476686477661132,0.4062841415405273,0
0.6477287292480468,0.4062841415405273,0
0.6477590560913086,0.4072139739990234,0
0.6476137161254882,0.4072139739990234,0
0.6474597930908202,0.4065084457397461,0
0.6473075866699218,0.4065084457397461,0
0.6477521896362305,0.4063940048217773,0
0.6475891113281250,0.4063940048217773,0
0.6471942901611328,0.4061067581176758,0
0.6469717025756836,0.4061067581176758,0
0.6464584350585937,0.4051889419555664,0
0.6462152481079101,0.4051889419555664,0
0.6457700729370117,0.4052295684814453,0
0.6451847076416015,0.4052295684814453,0
0.6445466995239257,0.4036846160888672,0
0.6439813613891602,0.4036846160888672,0
0.6441553115844726,0.4027496337890625,0
0.6435636520385742,0.4027496337890625,0
0.6428764343261718,0.4018369674682617,0
0.6424684524536133,0.4018369674682617,0
0.6418298721313477,0.4005397796630859,0
0.6415214538574219,0.4005397796630859,0
0.6411615371704101,0.4006719589233398,0
0.6407690048217773,0.4006719589233398,0
0.6404903411865234,0.3996711730957031,0
0.6402969360351562,0.3996711730957031,0
0.6408679962158202,0.3996768951416015,0
0.6408445358276367,0.3996768951416015,0
0.6407426834106446,0.3999773025512695,0
0.6410671234130859,0.3999773025512695,0
0.6410362243652343,0.4000900268554687,0
0.6414373397827148,0.4000900268554687,0
0.6416318893432617,0.4012619018554687,0
0.6417549133300781,0.4012619018554687,0
0.6417617797851562,0.4011766433715820,0
0.6419666290283202,0.4011766433715820,0
0.6427791595458984,0.4017425537109375,0
0.6430635452270508,0.4017425537109375,0
0.6429880142211913,0.4021808624267578,0
0.6433902740478515,0.4021808624267578,0
0.6433679580688476,0.4022878646850586,0
0.6437564849853515,0.4022878646850586,0
0.6438119888305663,0.4032800674438476,0
0.6437158584594727,0.4032800674438476,0
0.6436265945434571,0.4029144287109375,0
0.6436523437500000,0.4029144287109375,0
0.6444087982177734,0.4031015396118164,0
0.6444128036499023,0.4031015396118164,0
0.6442514419555664,0.4033870697021484,0
0.6445352554321289,0.4033870697021484,0
0.6443904876708985,0.4033521652221679,0
0.6447160720825195,0.4033521652221679,0
0.6447830200195312,0.4042476654052734,0
0.6447784423828125,0.4042476654052734,0
0.6445867538452148,0.4038883209228515,0
0.6446210861206054,0.4038883209228515,0
0.6453306198120117,0.4042104721069336,0
0.6453872680664062,0.4042104721069336,0
0.6452247619628906,0.4043197631835938,0
0.6454015731811523,0.4043197631835938,0
0.6452150344848633,0.4041475296020507,0
0.6454444885253906,0.4041475296020507,0
0.6454204559326172,0.4049646377563477,0
0.6452848434448242,0.4049646377563477,0
0.6450359344482421,0.4043031692504883,0
0.6449134826660156,0.4043031692504883,0
0.6455921173095703,0.4042093276977539,0
0.6453901290893554,0.4042093276977539,0
0.6450399398803711,0.4041561126708984,0
0.6451389312744140,0.4041561126708984,0
0.6449792861938476,0.4037544250488281,0
0.6450593948364257,0.4037544250488281,0
0.6449483871459961,0.4042940139770508,0
0.6447017669677734,0.4042940139770508,0
0.6443452835083008,0.4036514282226563,0
0.6442153930664062,0.4036514282226563,0
0.6449277877807617,0.4036628723144531,0
0.6447767257690430,0.4036628723144531,0
0.6445055007934570,0.4035907745361328,0
0.6446319580078125,0.4035907745361328,0
0.6444717407226562,0.4034540176391602,0
0.6446891784667969,0.4034540176391602,0
0.6446325302124023,0.4041675567626953,0
0.6444711685180664,0.4041675567626953,0
0.6442560195922852,0.4036525726318359,0
0.6442228317260742,0.4036525726318359,0
0.6450433731079102,0.4038127899169922,0
0.6450147628784180,0.4038127899169922,0
0.6448076248168945,0.4039484024047851,0
0.6449998855590821,0.4039484024047851,0
0.6448997497558594,0.4037950515747070,0
0.6451955795288086,0.4037950515747070,0
0.6451217651367187,0.4045789718627930,0
0.6449867248535156,0.4045789718627930,0
0.6447475433349609,0.4042631149291992,0
0.6447372436523438,0.4042631149291992,0
0.6455669403076172,0.4042779922485352,0
0.6455051422119140,0.4042779922485352,0
0.6452899932861328,0.4044816970825195,0
0.6454524993896484,0.4044816970825195,0
0.6453168869018554,0.4043907165527343,0
0.6456521987915039,0.4043907165527343,0
0.6455486297607421,0.4050144195556640,0
0.6453987121582031,0.4050144195556640,0
0.6450599670410156,0.4045841217041016,0
0.6449884414672852,0.4045841217041016,0
0.6458404541015624,0.4046802520751953,0
0.6456138610839843,0.4046802520751953,0
0.6453758239746094,0.4047397613525390,0
0.6455005645751953,0.4047397613525390,0
0.6453409194946289,0.4046207427978515,0
0.6458501815795898,0.4046207427978515,0
0.6454507827758789,0.4052146911621093,0
0.6452476501464843,0.4052146911621093,0
0.6449409484863281,0.4047855377197265,0
0.6448362350463867,0.4047855377197265,0
0.6456338882446289,0.4048204421997070,0
0.6453454971313476,0.4048204421997070,0
0.6451623916625976,0.4048736572265625,0
0.6452951431274414,0.4048736572265625,0
0.6451097488403320,0.4047626495361328,0
0.6454381942749023,0.4047626495361328,0
0.6452550888061523,0.4053308486938477,0
0.6451126098632812,0.4053308486938477,0
0.6448242187500000,0.4050029754638672,0
0.6447647094726562,0.4050029754638672,0
0.6457077026367187,0.4050510406494141,0
0.6456201553344726,0.4050510406494141,0
0.6452877044677734,0.4051002502441406,0
0.6449998855590821,0.4051002502441406,0
0.6453014373779297,0.4050149917602539,0
0.6456905364990234,0.4050149917602539,0
0.6455577850341797,0.4055299758911133,0
0.6453620910644531,0.4055299758911133,0
0.6448768615722656,0.4050029754638672,0
0.6448081970214844,0.4050029754638672,0
0.6455366134643554,0.4048255920410156,0
0.6450931549072265,0.4048255920410156,0
0.6445741653442383,0.4043123245239258,0
0.6443864822387695,0.4043123245239258,0
0.6437696456909180,0.4035318374633789,0
0.6436105728149414,0.4035318374633789,0
0.6431070327758789,0.4031347274780273,0
0.6424158096313476,0.4031347274780273,0
0.6415786743164062,0.4017625808715820,0
0.6408954620361328,0.4017625808715820,0
0.6412078857421875,0.4004728317260742,0
0.6403100967407226,0.4004728317260742,0
0.6394906997680664,0.3993301391601562,0
0.6390129089355469,0.3993301391601562,0
0.6384229660034180,0.3982275009155273,0
0.6383354187011718,0.3982275009155273,0
0.6379371643066406,0.3981348037719726,0
0.6376590728759766,0.3981348037719726,0
0.6372001647949218,0.3975557327270507,0
0.6371950149536133,0.3975557327270507,0
0.6381065368652343,0.3976810455322266,0
0.6380475997924805,0.3976810455322266,0
0.6379846572875977,0.3980060577392578,0
0.6383651733398438,0.3980060577392578,0
0.6384412765502929,0.3984226226806640,0
0.6390283584594726,0.3984226226806640,0
0.6391204833984375,0.3994142532348633,0
0.6392778396606446,0.3994142532348633,0
0.6392154693603516,0.3997243881225586,0
0.6395124435424805,0.3997243881225586,0
0.6406282424926758,0.4002405166625976,0
0.6407266616821289,0.4002405166625976,0
0.6405252456665039,0.4008018493652344,0
0.6405252456665039,0.4009454727172851,0
0.6417491912841796,0.4012464523315429,0
0.6416959762573242,0.4012464523315429,0
0.6415260314941406,0.4015130996704102,0
0.6417835235595702,0.4015130996704102,0
0.6417772293090820,0.4017591476440430,0
0.6422601699829101,0.4017591476440430,0
0.6421319961547851,0.4022930145263672,0
0.6421199798583984,0.4022930145263672,0
0.6419408798217773,0.4022586822509766,0
0.6420536041259766,0.4022586822509766,0
0.6431682586669921,0.4025756835937500,0
0.6430692672729492,0.4025756835937500,0
0.6428461074829102,0.4028892517089844,0
0.6431299209594726,0.4028892517089844,0
0.6430812835693359,0.4030483245849609,0
0.6435258865356445,0.4030483245849609,0
0.6434383392333984,0.4035381317138672,0
0.6433404922485352,0.4035381317138672,0
0.6431070327758789,0.4034568786621094,0
0.6431196212768554,0.4034568786621094,0
0.6440826416015625,0.4035095214843750,0
0.6438079833984375,0.4035095214843750,0
0.6435207366943360,0.4035346984863281,0
0.6436180114746094,0.4035346984863281,0
0.6434206008911133,0.4034545898437500,0
0.6436883926391601,0.4034545898437500,0
0.6434886932373046,0.4035776138305664,0
0.6432826995849609,0.4035776138305664,0
0.6428426742553711,0.4033338546752930,0
0.6427150726318359,0.4033338546752930,0
0.6436798095703125,0.4032274246215820,0
0.6434257507324218,0.4032274246215820,0
0.6430389404296875,0.4031375885009765,0
0.6431459426879883,0.4031375885009765,0
0.6429159164428710,0.4031089782714843,0
0.6432769775390624,0.4031089782714843,0
0.6431138992309570,0.4033298492431641,0
0.6429067611694336,0.4033298492431641,0
0.6426246643066406,0.4032485961914062,0
0.6425926208496093,0.4032485961914062,0
0.6436460494995117,0.4032503128051758,0
0.6433267593383789,0.4032503128051758,0
0.6431819915771484,0.4033985137939453,0
0.6433307647705078,0.4033985137939453,0
0.6432449340820312,0.4034992218017578,0
0.6436529159545898,0.4034992218017578,0
0.6435035705566406,0.4038030624389649,0
0.6433685302734374,0.4038030624389649,0
0.6431888580322266,0.4038270950317382,0
0.6432466506958008,0.4038270950317382,0
0.6442485809326172,0.4039690017700195,0
0.6440500259399414,0.4039690017700195,0
0.6438749313354492,0.4040983200073242,0
0.6440792083740234,0.4040983200073242,0
0.6439401626586914,0.4043197631835938,0
0.6444562911987305,0.4043197631835938,0
0.6441942214965820,0.4045772552490234,0
0.6441982269287109,0.4045772552490234,0
0.6440391540527344,0.4047174453735352,0
0.6440214157104492,0.4047174453735352,0
0.6450645446777343,0.4047500610351563,0
0.6448368072509766,0.4047500610351563,0
0.6446502685546874,0.4048822402954101,0
0.6447835922241211,0.4048822402954101,0
0.6446914672851562,0.4050167083740234,0
0.6451921463012695,0.4050167083740234,0
0.6450656890869141,0.4053142547607422,0
0.6449449539184570,0.4053142547607422,0
0.6445890426635742,0.4053977966308593,0
0.6446886062622070,0.4053977966308593,0
0.6457666397094727,0.4054624557495117,0
0.6454908370971679,0.4054624557495117,0
0.6453792572021484,0.4055889129638672,0
0.6455160140991211,0.4055889129638672,0
0.6454273223876953,0.4056827545166016,0
0.6459171295166015,0.4056827545166016,0
0.6455732345581054,0.4059368133544922,0
0.6454622268676757,0.4059368133544922,0
0.6452270507812500,0.4059700012207031,0
0.6452133178710937,0.4059700012207031,0
0.6463760375976563,0.4059900283813476,0
0.6460493087768554,0.4059900283813476,0
0.6458621978759765,0.4061382293701172,0
0.6460063934326171,0.4061382293701172,0
0.6460058212280273,0.4062578201293945,0
0.6464698791503906,0.4062578201293945,0
0.6462736129760742,0.4063911437988281,0
0.6461557388305664,0.4063911437988281,0
0.6458181381225586,0.4064683914184570,0
0.6458187103271484,0.4064683914184570,0
0.6468629837036133,0.4063945770263672,0
0.6465185165405273,0.4063945770263672,0
0.6463102340698242,0.4063625335693359,0
0.6463468551635742,0.4063625335693359,0
0.6461723327636718,0.4063648223876953,0
0.6465780258178710,0.4063648223876953,0
0.6462564468383789,0.4062915802001953,0
0.6459669113159180,0.4062915802001953,0
0.6454759597778320,0.4060586929321289,0
0.6452402114868164,0.4060586929321289,0
0.6459772109985351,0.4053766250610352,0
0.6452184677124023,0.4053766250610352,0
0.6445363998413086,0.4046916961669922,0
0.6442256927490234,0.4046916961669922,0
0.6435962677001953,0.4039117813110352,0
0.6435630798339843,0.4039117813110352,0
0.6429765701293945,0.4031055450439453,0
0.6423231124877929,0.4031055450439453,0
0.6415346145629882,0.4023199081420898,0
0.6409818649291992,0.4023199081420898,0
0.6415403366088867,0.4013460159301758,0
0.6408926010131836,0.4013460159301758,0
0.6402872085571288,0.4006313323974609,0
0.6401287078857422,0.4006313323974609,0
0.6397882461547851,0.4002468109130859,0
0.6400680541992188,0.4002468109130859,0
0.6397029876708984,0.4001243591308594,0
0.6395261764526367,0.4001243591308594,0
0.6393688201904296,0.4003841400146484,0
0.6394523620605469,0.4003841400146484,0
0.6406116485595703,0.4005746841430664,0
0.6388549804687500,0.4005746841430664,0
0.6402053833007812,0.4010038375854492,0
0.6408325195312500,0.4010038375854492,0
0.6409532546997070,0.4016103744506836,0
0.6416233062744140,0.4016103744506836,0
0.6415740966796875,0.4020355224609375,0
0.6417114257812500,0.4020355224609375,0
0.6415552139282227,0.4026277542114258,0
0.6417039871215821,0.4026277542114258,0
0.6429164886474609,0.4027988433837891,0
0.6426618576049804,0.4027988433837891,0
0.6425382614135742,0.4030820846557617,0
0.6427637100219726,0.4030820846557617,0
0.6427431106567383,0.4033807754516601,0
0.6433267593383789,0.4033807754516601,0
0.6430984497070312,0.4034402847290039,0
0.6429439544677734,0.4034402847290039,0
0.6427465438842773,0.4038465499877930,0
0.6428627014160156,0.4038465499877930,0
0.6439338684082031,0.4039409637451172,0
0.6437599182128906,0.4039409637451172,0
0.6436569213867187,0.4041624069213867,0
0.6439430236816406,0.4041624069213867,0
0.6439064025878906,0.4044994354248047,0
0.6445730209350585,0.4044994354248047,0
0.6443595886230469,0.4046854019165039,0
0.6442852020263672,0.4046854019165039,0
0.6440832138061523,0.4050893783569336,0
0.6441410064697265,0.4050893783569336,0
0.6452047348022460,0.4050659179687500,0
0.6447772979736328,0.4050659179687500,0
0.6446554183959960,0.4049297332763672,0
0.6447687149047852,0.4049297332763672,0
0.6447389602661132,0.4052015304565429,0
0.6451446533203125,0.4052015304565429,0
0.6447109222412110,0.4051351547241211,0
0.6446376800537109,0.4051351547241211,0
0.6443550109863281,0.4053737640380859,0
0.6442623138427734,0.4053737640380859,0
0.6452505111694335,0.4051643371582031,0
0.6448122024536133,0.4051643371582031,0
0.6445169448852539,0.4050361633300781,0
0.6446044921874999,0.4050361633300781,0
0.6451034545898438,0.4050378799438477,0
0.6446434020996094,0.4048410415649414,0
0.6444305419921875,0.4048410415649414,0
0.6442325592041015,0.4051151275634766,0
0.6445472717285156,0.4050951004028320,0
0.6446868896484375,0.4048730850219727,0
0.6445901870727538,0.4047334671020508,0
0.6443132400512696,0.4051757812500000,0
0.6452848434448242,0.4050367355346680,0
0.6447813034057617,0.4050264358520508,0
0.6444305419921875,0.4052124023437500,0
0.6453197479248046,0.4052804946899414,0
0.6454616546630859,0.4052770614624023,0
0.6449729919433593,0.4053926467895508,0
0.6447132110595702,0.4055162429809570,0
0.6458129882812500,0.4055665969848632,0
0.6454856872558593,0.4056507110595703,0
0.6455469131469727,0.4057771682739258,0
0.6451343536376953,0.4060523986816406,0
0.6461402893066406,0.4059619903564453,0
0.6457941055297851,0.4063167572021484,0
0.6438074111938477,0.4062744140625000,0
0.6442422866821289,0.4064031600952148,0
0.6458621978759765,0.4063470840454101,0
0.6458621978759765,0.4062194824218750,0
0.6456699371337891,0.4067087173461914,0
0.6459703445434570,0.4066452026367187,0
0.6461877822875977,0.4065490722656250,0
0.6461511611938476,0.4064208984375000,0
0.6463090896606445,0.4070423126220703,0
0.6468269348144531,0.4069272994995117,0
0.6463514328002929,0.4067556381225586,0
0.6464303970336914,0.4069318771362305,0
0.6465391159057617,0.4071321487426758,0
0.6471811294555664,0.4070652008056641,0
0.6466043472290038,0.4069868087768554,0
0.6463851928710938,0.4074199676513672,0
0.6466426849365234,0.4073226928710937,0
0.6468423843383789,0.4070943832397461,0
0.6468366622924805,0.4070022583007812,0
0.6469036102294922,0.4076454162597656,0
0.6474523544311523,0.4075126647949219,0
0.6468767166137696,0.4073535919189453,0
0.6469602584838867,0.4075195312500000,0
0.6470935821533202,0.4076614379882812,0
0.6477521896362305,0.4075538635253906,0
0.6470918655395508,0.4075716018676758,0
0.6469041824340820,0.4075716018676758,0
0.6477029800415038,0.4076425552368164,0
0.6477029800415038,0.4074634552001953,0
0.6467279434204102,0.4070531845092774,0
0.6462701797485352,0.4070795059204101,0
0.6463342666625976,0.4060083389282226,0
0.6452728271484375,0.4057016372680664,0
0.6440288543701171,0.4046979904174804,0
0.6440288543701171,0.4049383163452148,0
0.6439619064331055,0.4037767410278320,0
0.6430383682250976,0.4035833358764648,0
0.6419013977050781,0.4026449203491211,0
0.6414773941040038,0.4028240203857422,0
0.6412290573120117,0.4017900466918945,0
0.6411849975585937,0.4013551712036132,0
0.6404869079589843,0.4012928009033203,0
0.6403553009033203,0.4014610290527343,0
0.6408559799194335,0.4011331558227539,0
0.6407827377319336,0.4013929367065430,0
0.6407615661621093,0.4015336990356445,0
0.6408828735351563,0.4017133712768555,0
0.6416347503662109,0.4018095016479492,0
0.6414991378784179,0.4017299652099609,0
0.6417119979858398,0.4026489257812500,0
0.6421010971069335,0.4026489257812500,0
0.6425920486450195,0.4028011322021484,0
0.6424644470214843,0.4027364730834961,0
0.6425920486450195,0.4035346984863281,0
0.6429319381713867,0.4036165237426758,0
0.6432632446289063,0.4037406921386719,0
0.6430744171142578,0.4033046722412109,0
0.6430715560913086,0.4041046142578125,0
0.6433862686157227,0.4041515350341797,0
0.6435682296752929,0.4028886795043945,0
0.6435682296752929,0.4024904251098633,0
0.6434520721435547,0.4044507980346679,0
0.6438119888305663,0.4044822692871093,0
0.6440437316894531,0.4045766830444336,0
0.6425079345703125,0.4041526794433594,0
0.6427734374999999,0.4049337387084961,0
0.6442577362060546,0.4049995422363281,0
0.6445135116577149,0.4051374435424804,0
0.6443807601928710,0.4046865463256836,0
0.6444694519042968,0.4041109085083008,0
0.6447132110595702,0.4050292968750000,0
0.6448894500732422,0.4048770904541015,0
0.6446628570556641,0.4048770904541015,0
0.6432992935180664,0.4054893493652343,0
0.6432992935180664,0.4053245544433594,0
0.6447052001953125,0.4049068450927734,0
0.6446182250976562,0.4047574996948242,0
0.6445312500000000,0.4048553466796875,0
0.6449266433715820,0.4046876907348633,0
0.6442886352539062,0.4047580718994140,0
0.6445781707763671,0.4045486450195312,0
0.6438652038574219,0.4048948287963867,0
0.6441289901733398,0.4045269012451172,0
0.6440368652343750,0.4042407989501953,0
0.6438955307006836,0.4049612045288086,0
0.6441118240356445,0.4048931121826172,0
0.6441787719726563,0.4047271728515625,0
0.6441787719726563,0.4044719696044922,0
0.6441043853759766,0.4052804946899414,0
0.6443086624145508,0.4051877975463867,0
0.6444665908813476,0.4052730560302734,0
0.6443836212158203,0.4048124313354492,0
0.6444391250610352,0.4052272796630859,0
0.6446943283081055,0.4055797576904297,0
0.6448631286621094,0.4051454544067383,0
0.6449083328247071,0.4051454544067383,0
0.6448402404785156,0.4059671401977539,0
0.6450519561767578,0.4057594299316406,0
0.6451526641845703,0.4053577423095703,0
0.6451898574829101,0.4053577423095703,0
0.6452167510986327,0.4062772750854492,0
0.6452167510986327,0.4060438156127930,0
0.6452144622802735,0.4056953430175781,0
0.6453849792480468,0.4059505462646484,0
0.6454221725463867,0.4062538146972656,0
0.6459337234497070,0.4062538146972656,0
0.6453763961791992,0.4057989120483398,0
0.6455360412597656,0.4061576843261719,0
0.6455577850341797,0.4063785552978516,0
0.6460367202758789,0.4063785552978516,0
0.6455692291259766,0.4060083389282226,0
0.6456842422485352,0.4059631347656250,0
0.6456802368164062,0.4065376281738281,0
0.6461505889892578,0.4065376281738281,0
0.6456682205200195,0.4060832977294922,0
0.6457609176635742,0.4064592361450195,0
0.6457380294799805,0.4066286087036133,0
0.6461751937866210,0.4064849853515625,0
0.6457466125488281,0.4062183380126953,0
0.6457466125488281,0.4065908432006836,0
0.6457763671875000,0.4067876815795898,0
0.6462598800659179,0.4065942764282227,0
0.6457872390747070,0.4060958862304687,0
0.6457775115966796,0.4065038681030274,0
0.6456699371337891,0.4064540863037109,0
0.6456996917724609,0.4060850143432617,0
0.6445793151855469,0.4054756164550781,0
0.6441066741943359,0.4054756164550781,0
0.6436855316162109,0.4047964096069336,0
0.6436855316162109,0.4041543960571289,0
0.6421937942504883,0.4031152725219727,0
0.6414882659912109,0.4027730941772461,0
0.6409006118774414,0.4014112472534180,0
0.6399398803710937,0.4014553070068359,0
0.6391324996948242,0.4004241943359375,0
0.6389522552490234,0.4005477905273437,0
0.6387296676635742,0.3993152618408203,0
0.6378959655761719,0.3990297317504883,0
0.6378026962280273,0.3992712020874024,0
0.6383491516113281,0.3989353179931641,0
0.6383491516113281,0.3989072799682617,0
0.6380710601806641,0.3988912582397461,0
0.6383096694946289,0.3989982604980469,0
0.6383096694946289,0.3993587493896484,0
0.6385711669921875,0.4001008987426758,0
0.6393144607543945,0.4001712799072266,0
0.6393018722534179,0.4001712799072266,0
0.6394094467163086,0.4005563735961914,0
0.6398689270019531,0.4005563735961914,0
0.6398603439331054,0.4011171340942383,0
0.6405521392822265,0.4011171340942383,0
0.6402437210083007,0.4010622024536133,0
0.6402511596679688,0.4010622024536133,0
0.6405246734619140,0.4021837234497070,0
0.6405767440795899,0.4021837234497070,0
0.6412319183349610,0.4019227981567383,0
0.6409950256347656,0.4019227981567383,0
0.6396297454833985,0.4021041870117187,0
0.6399696350097656,0.4021041870117187,0
0.6410900115966797,0.4023788452148437,0
0.6416627883911132,0.4023788452148437,0
0.6412748336791992,0.4020223617553711,0
0.6412313461303710,0.4020223617553711,0
0.6413766860961914,0.4031661987304687,0
0.6414888381958007,0.4031661987304687,0
0.6421806335449218,0.4029293060302734,0
0.6419551849365234,0.4029293060302734,0
0.6420976638793945,0.4032176971435547,0
0.6423534393310547,0.4032176971435547,0
0.6423751831054687,0.4036571502685547,0
0.6429422378540038,0.4036571502685547,0
0.6426137924194336,0.4033624649047852,0
0.6426258087158203,0.4033624649047852,0
0.6427556991577148,0.4043998718261719,0
0.6428237915039062,0.4043998718261719,0
0.6432701110839844,0.4040021896362305,0
0.6429479598999023,0.4040021896362305,0
0.6430177688598633,0.4039901733398437,0
0.6431350708007812,0.4039901733398437,0
0.6430629730224610,0.4041687011718750,0
0.6434549331665039,0.4041687011718750,0
0.6429267883300781,0.4036279678344726,0
0.6427906036376952,0.4036279678344726,0
0.6428707122802734,0.4044347763061523,0
0.6428564071655273,0.4044347763061523,0
0.6431270599365234,0.4038139343261719,0
0.6427745819091797,0.4038139343261719,0
0.6427402496337891,0.4037075042724609,0
0.6428621292114257,0.4037075042724609,0
0.6426675796508788,0.4038185119628906,0
0.6430114746093750,0.4038185119628906,0
0.6427093505859375,0.4032485961914062,0
0.6425479888916016,0.4032485961914062,0
0.6412227630615234,0.4041835784912109,0
0.6420822143554688,0.4041835784912109,0
0.6429422378540038,0.4037418365478516,0
0.6426704406738281,0.4037418365478516,0
0.6427574157714844,0.4037275314331055,0
0.6429285049438477,0.4037275314331055,0
0.6427871704101562,0.4039976119995117,0
0.6432380676269531,0.4039976119995117,0
0.6428461074829102,0.4035982131958007,0
0.6429800033569336,0.4035982131958007,0
0.6430269241333008,0.4046339035034179,0
0.6429113388061524,0.4046339035034179,0
0.6434263229370117,0.4042018890380859,0
0.6432609558105469,0.4042018890380859,0
0.6435115814208984,0.4044021606445312,0
0.6433301925659179,0.4044021606445312,0
0.6435064315795899,0.4046733856201172,0
0.6439527511596680,0.4046733856201172,0
0.6436546325683593,0.4043294906616211,0
0.6436031341552734,0.4043294906616211,0
0.6437353134155274,0.4054824829101563,0
0.6437599182128906,0.4054824829101563,0
0.6442405700683593,0.4050035476684570,0
0.6440322875976562,0.4050035476684570,0
0.6427619934082031,0.4051054000854492,0
0.6436128616333008,0.4051054000854492,0
0.6442096710205077,0.4054401397705078,0
0.6446210861206054,0.4054401397705078,0
0.6443006515502929,0.4049892425537109,0
0.6442708969116211,0.4049892425537109,0
0.6443567276000977,0.4060312271118164,0
0.6442846298217774,0.4060312271118164,0
0.6447664260864258,0.4055345535278320,0
0.6445215225219726,0.4055345535278320,0
0.6446456909179688,0.4056364059448242,0
0.6447784423828125,0.4056364059448242,0
0.6446662902832031,0.4058681488037109,0
0.6450616836547851,0.4058681488037109,0
0.6447881698608399,0.4053874969482422,0
0.6447320938110351,0.4053874969482422,0
0.6449129104614257,0.4064409255981445,0
0.6448350906372070,0.4064409255981445,0
0.6452379226684570,0.4059871673583984,0
0.6449878692626952,0.4059871673583984,0
0.6451354980468750,0.4060266494750976,0
0.6452779769897461,0.4060266494750976,0
0.6452093124389648,0.4062795639038086,0
0.6456098556518555,0.4062795639038086,0
0.6452968597412109,0.4058790206909180,0
0.6452436447143555,0.4058790206909180,0
0.6453580856323242,0.4069404602050781,0
0.6453266143798828,0.4069404602050781,0
0.6456539154052734,0.4064054489135742,0
0.6454593658447265,0.4064054489135742,0
0.6456230163574218,0.4064168930053711,0
0.6455532073974609,0.4064168930053711,0
0.6456132888793945,0.4066177368164062,0
0.6459486007690429,0.4066177368164062,0
0.6455457687377929,0.4060901641845703,0
0.6454673767089844,0.4060901641845703,0
0.6454982757568359,0.4069444656372070,0
0.6452396392822265,0.4069444656372070,0
0.6454238891601562,0.4059837341308594,0
0.6448316574096680,0.4059837341308594,0
0.6446891784667969,0.4053594589233399,0
0.6443264007568359,0.4053594589233399,0
0.6437204360961913,0.4034505844116211,0
0.6434606552124024,0.4034505844116211,0
0.6427133560180663,0.4031610488891602,0
0.6421010971069335,0.4031610488891602,0
0.6417245864868164,0.4031227111816406,0
0.6410293579101562,0.4031227111816406,0
0.6407833099365234,0.4013208389282226,0
0.6399307250976562,0.4013208389282226,0
0.6395908355712890,0.4001970291137695,0
0.6391204833984375,0.4001970291137695,0
0.6384933471679687,0.3993970870971680,0
0.6384372711181641,0.3993970870971680,0
0.6379251480102539,0.3972370147705078,0
0.6377214431762696,0.3972370147705078,0
0.6377706527709961,0.3991693496704101,0
0.6377231597900390,0.3991693496704101,0
0.6380544662475586,0.3987756729125976,0
0.6380435943603515,0.3987756729125976,0
0.6383171081542969,0.3991310119628906,0
0.6386541366577149,0.3991310119628906,0
0.6386838912963867,0.3996780395507812,0
0.6392847061157226,0.3996780395507812,0
0.6392498016357422,0.3996860504150391,0
0.6394042968750000,0.3996860504150391,0
0.6397750854492187,0.4012046813964844,0
0.6399490356445312,0.4012046813964844,0
0.6403163909912110,0.4011051177978516,0
0.6403421401977539,0.4011051177978516,0
0.6407506942749023,0.4013786315917969,0
0.6409521102905273,0.4013786315917969,0
0.6408691406250000,0.4018507003784180,0
0.6412862777709961,0.4018507003784180,0
0.6410568237304687,0.4015548706054687,0
0.6411575317382813,0.4015548706054687,0
0.6413200378417968,0.4027261734008789,0
0.6413635253906250,0.4027261734008789,0
0.6416461944580077,0.4023050308227539,0
0.6414682388305664,0.4023050308227539,0
0.6418373107910156,0.4024303436279297,0
0.6419855117797851,0.4024303436279297,0
0.6419019699096680,0.4027908325195312,0
0.6422372817993164,0.4027908325195312,0
0.6407552719116211,0.4025619506835937,0
0.6408451080322265,0.4025619506835937,0
0.6423328399658202,0.4037349700927734,0
0.6423522949218750,0.4037349700927734,0
0.6427150726318359,0.4033721923828125,0
0.6425983428955078,0.4033721923828125,0
0.6428792953491210,0.4035736083984375,0
0.6430521011352539,0.4035736083984375,0
0.6429656982421875,0.4038064956665039,0
0.6433221817016601,0.4038064956665039,0
0.6430629730224610,0.4035266876220703,0
0.6430749893188477,0.4035266876220703,0
0.6432186126708984,0.4044828414916992,0
0.6430892944335938,0.4044828414916992,0
0.6432689666748047,0.4038774490356445,0
0.6430469512939453,0.4038774490356445,0
0.6432981491088867,0.4038339614868164,0
0.6433736801147460,0.4038339614868164,0
0.6431179046630859,0.4039157867431640,0
0.6433467864990234,0.4039157867431640,0
0.6430738449096679,0.4033607482910156,0
0.6431419372558593,0.4033607482910156,0
0.6430784225463867,0.4042745590209961,0
0.6429468154907226,0.4042745590209961,0
0.6417062759399413,0.4036233901977539,0
0.6415185928344727,0.4036233901977539,0
0.6430732727050781,0.4036211013793945,0
0.6431322097778320,0.4036211013793945,0
0.6428821563720702,0.4037824630737304,0
0.6432020187377929,0.4037824630737304,0
0.6429021835327148,0.4032789230346679,0
0.6429702758789062,0.4032789230346679,0
0.6431013107299804,0.4043775558471679,0
0.6430000305175781,0.4043775558471679,0
0.6431402206420899,0.4038471221923828,0
0.6429908752441406,0.4038471221923828,0
0.6433925628662109,0.4039878845214844,0
0.6435733795166015,0.4039878845214844,0
0.6434274673461914,0.4042179107666016,0
0.6437610626220703,0.4042179107666016,0
0.6435190200805664,0.4039604187011719,0
0.6436151504516602,0.4039604187011719,0
0.6438085556030273,0.4050516128540039,0
0.6437318801879882,0.4050516128540039,0
0.6439058303833007,0.4045726776123047,0
0.6439384460449219,0.4045726776123047,0
0.6442171096801758,0.4047140121459961,0
0.6443464279174804,0.4047140121459961,0
0.6428918838500977,0.4050796508789062,0
0.6431047439575195,0.4050796508789062,0
0.6442766189575195,0.4046985626220703,0
0.6445089340209961,0.4046985626220703,0
0.6445512771606445,0.4057622909545898,0
0.6444969177246094,0.4057622909545898,0
0.6446056365966797,0.4052421569824219,0
0.6444837570190429,0.4052421569824219,0
0.6449157714843750,0.4054143905639648,0
0.6447961807250976,0.4059940338134765,0
0.6451440811157226,0.4056501388549805,0
0.6448287963867188,0.4056501388549805,0
0.6449306488037109,0.4053400039672851,0
0.6449661254882812,0.4053400039672851,0
0.6450914382934571,0.4064220428466797,0
0.6450548171997070,0.4064220428466797,0
0.6451011657714844,0.4057891845703125,0
0.6449403762817383,0.4057891845703125,0
0.6453786849975586,0.4059665679931641,0
0.6454444885253906,0.4059665679931641,0
0.6452493667602539,0.4061565399169922,0
0.6455228805541992,0.4061565399169922,0
0.6453197479248046,0.4057771682739258,0
0.6453414916992187,0.4057771682739258,0
0.6442239761352538,0.4067911148071289,0
0.6440443038940430,0.4067911148071289,0
0.6454542160034179,0.4062137603759766,0
0.6452751159667969,0.4062137603759766,0
0.6456596374511718,0.4063230514526367,0
0.6457117080688476,0.4063230514526367,0
0.6456001281738281,0.4064878463745117,0
0.6458518981933593,0.4064878463745117,0
0.6456705093383789,0.4061473846435547,0
0.6456945419311523,0.4061473846435547,0
0.6457975387573242,0.4071767807006836,0
0.6456659317016601,0.4071767807006836,0
0.6457328796386719,0.4065690994262695,0
0.6455949783325196,0.4065690994262695,0
0.6460458755493164,0.4067167282104492,0
0.6461042404174805,0.4067167282104492,0
0.6458639144897461,0.4069078445434570,0
0.6461242675781250,0.4069078445434570,0
0.6459280014038086,0.4065719604492187,0
0.6459903717041016,0.4065719604492187,0
0.6461397171020508,0.4075647354125976,0
0.6460664749145507,0.4075647354125976,0
0.6460189819335938,0.4070016860961914,0
0.6458999633789062,0.4070016860961914,0
0.6463445663452149,0.4071464538574219,0
0.6463468551635742,0.4071464538574219,0
0.6461414337158203,0.4072271347045898,0
0.6463451385498047,0.4072271347045898,0
0.6461065292358398,0.4067596435546875,0
0.6460201263427734,0.4067596435546875,0
0.6459142684936523,0.4073970794677734,0
0.6455263137817383,0.4073970794677734,0
0.6451824188232421,0.4061176300048828,0
0.6445838928222656,0.4061176300048828,0
0.6446342468261719,0.4053079605102539,0
0.6441152572631835,0.4053079605102539,0
0.6434171676635742,0.4045629501342773,0
0.6430881500244140,0.4045629501342773,0
0.6425119400024414,0.4032754898071289,0
0.6421445846557617,0.4032754898071289,0
0.6418190002441406,0.4034534454345703,0
0.6412370681762695,0.4034534454345703,0
0.6408319473266602,0.4020406723022461,0
0.6402471542358398,0.4020406723022461,0
0.6404617309570312,0.4015108108520508,0
0.6402431488037109,0.4015108108520508,0
0.6399158477783203,0.4012699127197266,0
0.6400537490844727,0.4012699127197266,0
0.6397882461547851,0.4007961273193359,0
0.6399684906005859,0.4007961273193359,0
0.6400772094726562,0.4019147872924805,0
0.6400714874267578,0.4019147872924805,0
0.6402013778686523,0.4015703201293945,0
0.6402191162109375,0.4015703201293945,0
0.6408611297607422,0.4019680023193359,0
0.6410659790039063,0.4019680023193359,0
0.6409772872924805,0.4024560928344726,0
0.6413852691650390,0.4024560928344726,0
0.6413240432739258,0.4024080276489257,0
0.6415323257446289,0.4024080276489257,0
0.6417480468750000,0.4036096572875976,0
0.6417715072631835,0.4036096572875976,0
0.6417903900146484,0.4031942367553711,0
0.6417285919189453,0.4031942367553711,0
0.6423505783081055,0.4034259796142578,0
0.6424261093139648,0.4034259796142578,0
0.6422149658203125,0.4037086486816406,0
0.6425296783447265,0.4037086486816406,0
0.6423551559448242,0.4034482955932617,0
0.6425748825073242,0.4034482955932617,0
0.6427740097045899,0.4045875549316406,0
0.6426710128784180,0.4045875549316406,0
0.6426355361938476,0.4040130615234375,0
0.6425823211669922,0.4040130615234375,0
0.6432392120361328,0.4042762756347656,0
0.6433107376098632,0.4042762756347656,0
0.6431802749633789,0.4046058654785156,0
0.6435407638549805,0.4046058654785156,0
0.6433753967285156,0.4044176101684570,0
0.6435768127441406,0.4044176101684570,0
0.6436180114746094,0.4054790496826172,0
0.6436437606811524,0.4054790496826172,0
0.6435934066772461,0.4050172805786132,0
0.6435413360595703,0.4050172805786132,0
0.6440814971923828,0.4050979614257812,0
0.6440866470336913,0.4050979614257812,0
0.6438972473144531,0.4052124023437500,0
0.6441352844238281,0.4052124023437500,0
0.6439075469970703,0.4049383163452148,0
0.6439533233642578,0.4049383163452148,0
0.6439613342285156,0.4058029174804688,0
0.6438314437866210,0.4058029174804688,0
0.6436964035034179,0.4050384521484375,0
0.6434823989868164,0.4050384521484375,0
0.6439802169799804,0.4049560546875000,0
0.6438995361328125,0.4049560546875000,0
0.6436609268188477,0.4049079895019531,0
0.6437164306640625,0.4049079895019531,0
0.6434720993041992,0.4045068740844727,0
0.6435184478759766,0.4045068740844727,0
0.6435104370117187,0.4052782058715820,0
0.6433502197265625,0.4052782058715820,0
0.6432374954223633,0.4045795440673828,0
0.6431573867797852,0.4045795440673828,0
0.6437244415283203,0.4045886993408203,0
0.6437095642089844,0.4045886993408203,0
0.6434749603271485,0.4047260284423828,0
0.6436838150024414,0.4047260284423828,0
0.6435613632202148,0.4044988632202148,0
0.6437524795532227,0.4044988632202148,0
0.6438091278076171,0.4054412841796875,0
0.6436746597290038,0.4054412841796875,0
0.6436454772949218,0.4049377441406250,0
0.6435922622680664,0.4049377441406250,0
0.6443132400512696,0.4051019668579102,0
0.6443681716918945,0.4051019668579102,0
0.6441204071044921,0.4053142547607422,0
0.6443304061889649,0.4053142547607422,0
0.6442972183227539,0.4052009582519531,0
0.6444831848144531,0.4052009582519531,0
0.6445724487304687,0.4061296463012695,0
0.6444917678833008,0.4061296463012695,0
0.6444849014282227,0.4056684494018555,0
0.6443664550781250,0.4056684494018555,0
0.6450456619262696,0.4058235168457031,0
0.6450593948364257,0.4058235168457031,0
0.6449014663696289,0.4048862457275391,0
0.6451583862304687,0.4048862457275391,0
0.6449420928955077,0.4058120727539062,0
0.6451366424560546,0.4058120727539062,0
0.6452373504638672,0.4067493438720703,0
0.6452442169189453,0.4067493438720703,0
0.6450542449951172,0.4062698364257812,0
0.6449913024902344,0.4062698364257812,0
0.6456745147705077,0.4064208984375000,0
0.6456916809082031,0.4064208984375000,0
0.6454816818237304,0.4065416336059570,0
0.6456882476806640,0.4065416336059570,0
0.6455669403076172,0.4063390731811523,0
0.6457534790039062,0.4063390731811523,0
0.6458118438720702,0.4071813583374023,0
0.6456750869750977,0.4071813583374023,0
0.6455303192138672,0.4066755294799805,0
0.6454301834106445,0.4066755294799805,0
0.6461277008056641,0.4067550659179687,0
0.6461402893066406,0.4067550659179687,0
0.6458747863769531,0.4068557739257813,0
0.6460092544555663,0.4068557739257813,0
0.6458948135375976,0.4066148757934570,0
0.6461185455322266,0.4066148757934570,0
0.6461414337158203,0.4062486648559570,0
0.6460184097290039,0.4062486648559570,0
0.6458387374877930,0.4068729400634766,0
0.6457174301147460,0.4068729400634766,0
0.6464160919189453,0.4070171356201172,0
0.6463628768920898,0.4070171356201172,0
0.6461568832397461,0.4071521759033203,0
0.6463994979858398,0.4071521759033203,0
0.6461957931518555,0.4069175720214844,0
0.6464006423950195,0.4069175720214844,0
0.6464155197143554,0.4077341079711914,0
0.6462421417236328,0.4077341079711914,0
0.6461391448974609,0.4072093963623047,0
0.6460012435913086,0.4072093963623047,0
0.6467948913574219,0.4072998046875000,0
0.6466999053955078,0.4072998046875000,0
0.6464612960815429,0.4073713302612305,0
0.6465591430664063,0.4073713302612305,0
0.6464481353759766,0.4071327209472656,0
0.6466186523437499,0.4071327209472656,0
0.6464824676513672,0.4078525543212890,0
0.6463096618652343,0.4078525543212890,0
0.6459486007690429,0.4070217132568359,0
0.6456699371337891,0.4070217132568359,0
0.6461597442626953,0.4066915512084961,0
0.6456756591796875,0.4066915512084961,0
0.6450754165649414,0.4060483932495117,0
0.6447086334228516,0.4060483932495117,0
0.6441244125366211,0.4048410415649414,0
0.6437913894653320,0.4048410415649414,0
0.6422178268432617,0.4047414779663086,0
0.6413835525512696,0.4047414779663086,0
0.6421463012695312,0.4033636093139648,0
0.6416090011596679,0.4033636093139648,0
0.6418945312500000,0.4025030136108398,0
0.6414224624633789,0.4025030136108398,0
0.6408027648925781,0.4018249511718750,0
0.6406494140625000,0.4018249511718750,0
0.6402723312377929,0.4009935379028320,0
0.6401893615722656,0.4009935379028320,0
0.6401309967041016,0.4015371322631836,0
0.6399467468261718,0.4015371322631836,0
0.6397596359252929,0.4009895324707031,0
0.6397287368774414,0.4009895324707031,0
0.6405647277832031,0.4012372970581055,0
0.6406270980834960,0.4012372970581055,0
0.6405538558959961,0.4015754699707031,0
0.6403942108154297,0.4017168045043945,0
0.6414310455322265,0.4021774291992187,0
0.6413732528686523,0.4021774291992187,0
0.6414287567138671,0.4024961471557617,0
0.6415025711059570,0.4026317596435547,0
0.6423963546752930,0.4029539108276367,0
0.6422607421875000,0.4032503128051758,0
0.6420255661010742,0.4031793594360352,0
0.6428432464599609,0.4032543182373047,0
0.6428764343261718,0.4035015106201172,0
0.6429187774658203,0.4032537460327149,0
0.6425039291381835,0.4036039352416992,0
0.6432598114013671,0.4037996292114258,0
0.6430624008178710,0.4037996292114258,0
0.6428243637084960,0.4040199279785156,0
0.6428243637084960,0.4040845870971679,0
0.6437044143676758,0.4042934417724609,0
0.6435842514038086,0.4048936843872070,0
0.6433708190917968,0.4045755386352539,0
0.6436288833618163,0.4045755386352539,0
0.6440408706665038,0.4053319931030273,0
0.6439023971557617,0.4053588867187500,0
0.6436122894287110,0.4049297332763672,0
0.6439441680908203,0.4048130035400391,0
0.6440162658691406,0.4051357269287109,0
0.6441713333129883,0.4050888061523437,0
0.6440311431884765,0.4048936843872070,0
0.6440786361694336,0.4054275512695312,0
0.6439109802246094,0.4054275512695312,0
0.6437599182128906,0.4049354553222656,0
0.6439590454101562,0.4046659469604492,0
0.6436941146850585,0.4052204132080078,0
0.6437736511230469,0.4047403335571289,0
0.6436351776123047,0.4045320510864258,0
0.6441003799438476,0.4044719696044922,0
0.6435853958129882,0.4047700881958008,0
0.6437467575073242,0.4046619415283203,0
0.6441026687622070,0.4045166015625000,0
0.6441026687622070,0.4047134399414062,0
0.6440134048461914,0.4048170089721679,0
0.6435482025146484,0.4048095703125000,0
0.6444065093994140,0.4050270080566406,0
0.6441478729248047,0.4055585861206055,0
0.6438434600830077,0.4050172805786132,0
0.6439161300659180,0.4051506042480469,0
0.6447309494018555,0.4053010940551758,0
0.6445632934570312,0.4058475494384766,0
0.6442445755004883,0.4055397033691406,0
0.6445959091186523,0.4057125091552734,0
0.6448013305664062,0.4062423706054688,0
0.6447252273559571,0.4062211990356445,0
0.6444854736328125,0.4058807373046875,0
0.6448705673217773,0.4060735702514648,0
0.6450553894042969,0.4064992904663086,0
0.6450548171997070,0.4064706802368164,0
0.6447332382202148,0.4061765670776367,0
0.6450891494750977,0.4061239242553711,0
0.6453626632690429,0.4068094253540039,0
0.6452516555786133,0.4068094253540039,0
0.6448699951171875,0.4064746856689453,0
0.6452768325805663,0.4063613891601562,0
0.6455841064453125,0.4069942474365234,0
0.6455766677856445,0.4066675186157226,0
0.6455892562866211,0.4068832397460938,0
0.6455892562866211,0.4066228866577148,0
0.6454679489135742,0.4068609237670898,0
0.6459697723388672,0.4070131301879883,0
0.6459646224975586,0.4069690704345703,0
0.6464778900146484,0.4069541931152343,0
0.6461374282836914,0.4072563171386719,0
0.6462450027465820,0.4072156906127929,0
0.6464590072631836,0.4071853637695312,0
0.6466901779174804,0.4073266983032227,0
0.6463274002075196,0.4073776245117187,0
0.6465065002441406,0.4073776245117187,0
0.6467285156250000,0.4073598861694336,0
0.6468927383422851,0.4074480056762695,0
0.6464509963989258,0.4075504302978515,0
0.6460390090942383,0.4074851989746094,0
0.6469156265258789,0.4074291229248047,0
0.6469156265258789,0.4075183868408203,0
0.6463497161865234,0.4073867797851562,0
0.6458908081054687,0.4070657730102539,0
0.6462421417236328,0.4065233230590820,0
0.6456933975219726,0.4067327499389649,0
0.6450199127197266,0.4059671401977539,0
0.6441473007202149,0.4053594589233399,0
0.6440986633300781,0.4044462203979492,0
0.6434223175048828,0.4047225952148437,0
0.6425828933715820,0.4039094924926758,0
0.6421268463134765,0.4035570144653320,0
0.6422344207763672,0.4026924133300781,0
0.6416816711425781,0.4028514862060547,0
0.6410442352294922,0.4022632598876953,0
0.6405338287353516,0.4020401000976562,0
0.6412038803100586,0.4018066406250000,0
0.6407260894775391,0.4018066406250000,0
0.6403043746948242,0.4017328262329101,0
0.6403043746948242,0.4018243789672851,0
0.6413131713867187,0.4020195007324219,0
0.6411226272583007,0.4020195007324219,0
0.6408679962158202,0.4022403717041015,0
0.6408679962158202,0.4024658203125000,0
0.6420473098754883,0.4027650833129883,0
0.6418962478637695,0.4033063888549804,0
0.6417263031005859,0.4030368804931641,0
0.6417263031005859,0.4032251358032227,0
0.6428592681884765,0.4034448623657226,0
0.6425989151000976,0.4034448623657226,0
0.6422201156616211,0.4036560058593750,0
0.6422201156616211,0.4037429809570313,0
0.6433799743652343,0.4038700103759765,0
0.6430171966552735,0.4043855667114258,0
0.6426807403564453,0.4039644241333007,0
0.6426807403564453,0.4041446685791015,0
0.6437238693237305,0.4042596817016602,0
0.6434503555297851,0.4047832489013672,0
0.6431385040283203,0.4044462203979492,0
0.6431922912597656,0.4045961380004883,0
0.6442817687988281,0.4047603607177734,0
0.6429090499877930,0.4053085327148437,0
0.6436780929565430,0.4049938201904297,0
0.6436655044555664,0.4051563262939453,0
0.6445610046386718,0.4052902221679687,0
0.6443733215332031,0.4056724548339843,0
0.6439350128173827,0.4052804946899414,0
0.6439476013183594,0.4054372787475586,0
0.6447057723999023,0.4054544448852539,0
0.6445615768432617,0.4058401107788086,0
0.6440694808959960,0.4053239822387695,0
0.6439682006835937,0.4054893493652343,0
0.6446079254150391,0.4053892135620117,0
0.6444385528564452,0.4056175231933594,0
0.6437913894653320,0.4051643371582031,0
0.6437032699584960,0.4052490234375000,0
0.6442565917968750,0.4051517486572265,0
0.6441226959228515,0.4053422927856445,0
0.6435533523559570,0.4049303054809570,0
0.6434326171875000,0.4050676345825195,0
0.6442056655883789,0.4049949645996094,0
0.6440277099609375,0.4052146911621093,0
0.6435316085815429,0.4049320220947266,0
0.6435081481933593,0.4050430297851562,0
0.6443424224853516,0.4050619125366211,0
0.6441610336303710,0.4053153991699219,0
0.6437501907348633,0.4052341461181641,0
0.6441925048828124,0.4052341461181641,0
0.6444568634033203,0.4053365707397461,0
0.6444568634033203,0.4056512832641602,0
0.6440883636474609,0.4054979324340820,0
0.6445289611816406,0.4054933547973633,0
0.6448036193847656,0.4059991836547852,0
0.6447818756103515,0.4057600021362305,0
0.6449014663696289,0.4059099197387695,0
0.6451349258422852,0.4064792633056640,0
0.6450668334960937,0.4063453674316406,0
0.6447349548339844,0.4062383651733398,0
0.6451623916625976,0.4062383651733398,0
0.6457489013671874,0.4063505172729492,0
0.6454931259155273,0.4063505172729492,0
0.6453014373779297,0.4064088821411133,0
0.6455194473266601,0.4064088821411133,0
0.6454072952270508,0.4065502166748047,0
0.6458599090576171,0.4065502166748047,0
0.6456871032714844,0.4069318771362305,0
0.6455062866210938,0.4069318771362305,0
0.6452653884887695,0.4068231582641602,0
0.6452968597412109,0.4068231582641602,0
0.6462844848632813,0.4068706512451172,0
0.6460985183715821,0.4068706512451172,0
0.6457717895507812,0.4069210052490234,0
0.6460144042968750,0.4069210052490234,0
0.6458902359008789,0.4069879531860351,0
0.6462301254272461,0.4069879531860351,0
0.6460847854614258,0.4073558807373047,0
0.6458919525146484,0.4073558807373047,0
0.6455875396728515,0.4072317123413086,0
0.6455795288085937,0.4072317123413086,0
0.6466638565063476,0.4072082519531250,0
0.6462209701538085,0.4072082519531250,0
0.6461311340332031,0.4072717666625976,0
0.6462850570678711,0.4072717666625976,0
0.6462049484252930,0.4073638916015625,0
0.6466220855712891,0.4073638916015625,0
0.6463806152343750,0.4077169418334961,0
0.6462123870849609,0.4077169418334961,0
0.6458593368530273,0.4075853347778320,0
0.6458312988281250,0.4075853347778320,0
0.6469093322753906,0.4075916290283203,0
0.6466941833496094,0.4075916290283203,0
0.6464109420776367,0.4076059341430664,0
0.6465230941772461,0.4076059341430664,0
0.6463823318481445,0.4076539993286133,0
0.6468612670898437,0.4076539993286133,0
0.6465568542480469,0.4079658508300781,0
0.6464464187622070,0.4079658508300781,0
0.6460836410522460,0.4078056335449219,0
0.6461156845092774,0.4078056335449219,0
0.6470827102661133,0.4077192306518554,0
0.6467805862426758,0.4077192306518554,0
0.6463920593261718,0.4075338363647461,0
0.6463314056396484,0.4075338363647461,0
0.6460218429565430,0.4071693420410156,0
0.6460922241210937,0.4071693420410156,0
0.6455463409423828,0.4067991256713867,0
0.6448951721191406,0.4067991256713867,0
0.6441455841064453,0.4057674407958984,0
0.6435974121093749,0.4057674407958984,0
0.6442497253417968,0.4048587799072266,0
0.6435178756713867,0.4048587799072266,0
0.6428443908691406,0.4040811538696289,0
0.6426097869873046,0.4040811538696289,0
0.6422315597534179,0.4034460067749023,0
0.6423265457153320,0.4034460067749023,0
0.6418172836303710,0.4030895233154297,0
0.6413406372070313,0.4030895233154297,0
0.6408599853515625,0.4025945663452148,0
0.6406465530395508,0.4025945663452148,0
0.6416519165039062,0.4023038864135742,0
0.6413194656372070,0.4023038864135742,0
0.6410562515258789,0.4023330688476562,0
0.6412679672241210,0.4023330688476562,0
0.6412204742431641,0.4025619506835937,0
0.6417955398559571,0.4025619506835937,0
0.6417211532592774,0.4029842376708984,0
0.6416954040527344,0.4029842376708984,0
0.6415208816528321,0.4032062530517578,0
0.6416810989379883,0.4032062530517578,0
0.6427591323852538,0.4034957885742188,0
0.6424982070922851,0.4034957885742188,0
0.6425502777099609,0.4036714553833008,0
0.6428329467773437,0.4036714553833008,0
0.6428174972534180,0.4040033340454102,0
0.6433570861816406,0.4040033340454102,0
0.6431470870971679,0.4043552398681641,0
0.6430360794067382,0.4043552398681641,0
0.6427648544311523,0.4044393539428711,0
0.6427980422973633,0.4044393539428711,0
0.6439081192016601,0.4045011520385742,0
0.6436586380004883,0.4045011520385742,0
0.6434520721435547,0.4046464920043945,0
0.6436838150024414,0.4046464920043945,0
0.6435665130615235,0.4047746658325195,0
0.6440671920776367,0.4047746658325195,0
0.6439023971557617,0.4051265716552734,0
0.6438165664672851,0.4051265716552734,0
0.6436254501342773,0.4052656173706055,0
0.6436408996582031,0.4052656173706055,0
0.6447818756103515,0.4053537368774414,0
0.6445455551147461,0.4053537368774414,0
0.6442989349365235,0.4055477142333984,0
0.6445444107055663,0.4055477142333984,0
0.6445352554321289,0.4057239532470703,0
0.6449323654174804,0.4057239532470703,0
0.6448173522949219,0.4059391021728516,0
0.6445644378662109,0.4059391021728516,0
0.6442176818847656,0.4059144973754883,0
0.6442199707031250,0.4059144973754883,0
0.6451383590698242,0.4058338165283203,0
0.6448877334594726,0.4058338165283203,0
0.6446205139160156,0.4057966232299804,0
0.6447498321533203,0.4057966232299804,0
0.6445558547973632,0.4057605743408203,0
0.6449306488037109,0.4057605743408203,0
0.6446216583251952,0.4057096481323242,0
0.6443859100341797,0.4057096481323242,0
0.6439281463623047,0.4055866241455078,0
0.6438274383544922,0.4055866241455078,0
0.6448837280273437,0.4053754806518555,0
0.6444499969482421,0.4053754806518555,0
0.6441106796264648,0.4052621841430664,0
0.6441387176513672,0.4052621841430664,0
0.6440637588500976,0.4052747726440429,0
0.6444757461547851,0.4052747726440429,0
0.6441347122192382,0.4054023742675781,0
0.6439081192016601,0.4054023742675781,0
0.6436523437500000,0.4054235458374023,0
0.6436254501342773,0.4054235458374023,0
0.6446594238281250,0.4053497314453125,0
0.6443532943725586,0.4053497314453125,0
0.6441278457641602,0.4053600311279297,0
0.6442491531372070,0.4053600311279297,0
0.6440872192382813,0.4055671691894531,0
0.6445398330688477,0.4055671691894531,0
0.6442932128906250,0.4057382583618164,0
0.6440631866455078,0.4057382583618164,0
0.6437101364135742,0.4058097839355468,0
0.6436923980712891,0.4058097839355468,0
0.6447801589965820,0.4058847427368164,0
0.6445959091186523,0.4058847427368164,0
0.6443532943725586,0.4059843063354492,0
0.6445907592773438,0.4059843063354492,0
0.6445375442504883,0.4061244964599609,0
0.6449878692626952,0.4061244964599609,0
0.6447727203369140,0.4064037322998047,0
0.6446010589599609,0.4064037322998047,0
0.6443281173706055,0.4065010070800781,0
0.6442886352539062,0.4065010070800781,0
0.6453609466552734,0.4064809799194336,0
0.6450210571289062,0.4064809799194336,0
0.6448448181152343,0.4065587997436523,0
0.6450571060180664,0.4065587997436523,0
0.6449689865112305,0.4067539215087890,0
0.6455137252807617,0.4067539215087890,0
0.6452739715576171,0.4069210052490234,0
0.6451538085937499,0.4069210052490234,0
0.6448556900024414,0.4070383071899414,0
0.6449048995971679,0.4070383071899414,0
0.6459806442260742,0.4070846557617188,0
0.6456590652465820,0.4070846557617188,0
0.6454708099365234,0.4071556091308594,0
0.6456968307495117,0.4071556091308594,0
0.6455915451049804,0.4072917938232422,0
0.6461608886718749,0.4072917938232422,0
0.6459074020385742,0.4074445724487304,0
0.6456991195678711,0.4074445724487304,0
0.6454336166381835,0.4076499938964844,0
0.6454542160034179,0.4076499938964844,0
0.6465551376342773,0.4075984954833984,0
0.6461894989013671,0.4075984954833984,0
0.6459754943847656,0.4076128005981445,0
0.6461317062377929,0.4076128005981445,0
0.6460344314575195,0.4078044891357422,0
0.6465471267700195,0.4078044891357422,0
0.6462781906127929,0.4079521179199219,0
0.6461282730102539,0.4079521179199219,0
0.6458312988281250,0.4080842971801757,0
0.6458724975585938,0.4080842971801757,0
0.6469190597534179,0.4080213546752929,0
0.6465002059936523,0.4080213546752929,0
0.6462850570678711,0.4080528259277343,0
0.6464406967163085,0.4080528259277343,0
0.6463514328002929,0.4081295013427734,0
0.6467903137207031,0.4081295013427734,0
0.6463331222534180,0.4079034805297851,0
0.6463977813720703,0.4080551147460937,0
0.6464887619018554,0.4079830169677734,0
0.6466884613037109,0.4076871871948242,0
0.6459651947021484,0.4075698852539062,0
0.6454713821411132,0.4075698852539062,0
0.6449260711669922,0.4070983886718750,0
0.6444763183593750,0.4070983886718750,0
0.6451377868652344,0.4061668395996094,0
0.6442285537719726,0.4061668395996094,0
0.6435304641723633,0.4053394317626953,0
0.6433084487915038,0.4053394317626953,0
0.6428398132324219,0.4046779632568359,0
0.6429176330566406,0.4046779632568359,0
0.6423168182373047,0.4039981842041016,0
0.6418230056762695,0.4039981842041016,0
0.6413440704345703,0.4035850524902344,0
0.6410242080688476,0.4035850524902344,0
0.6418968200683594,0.4030351638793945,0
0.6413881301879882,0.4030351638793945,0
0.6409990310668945,0.4028606414794922,0
0.6411993026733398,0.4028606414794922,0
0.6410734176635742,0.4029029846191406,0
0.6416261672973632,0.4029029846191406,0
0.6414350509643555,0.4030408859252930,0
0.6413486480712890,0.4030408859252930,0
0.6411907196044921,0.4034585952758789,0
0.6413274765014648,0.4034585952758789,0
0.6425451278686524,0.4036720275878906,0
0.6423963546752930,0.4036720275878906,0
0.6422487258911133,0.4039621353149414,0
0.6425388336181640,0.4039621353149414,0
0.6425971984863281,0.4043363571166992,0
0.6432683944702148,0.4043363571166992,0
0.6430475234985351,0.4044965744018554,0
0.6429582595825195,0.4044965744018554,0
0.6428987503051757,0.4049491882324219,0
0.6429468154907226,0.4049491882324219,0
0.6441003799438476,0.4050144195556640,0
0.6438291549682617,0.4050144195556640,0
0.6436471939086914,0.4051797866821289,0
0.6439270019531250,0.4051797866821289,0
0.6439001083374023,0.4054561614990234,0
0.6444791793823242,0.4054561614990234,0
0.6442199707031250,0.4055282592773438,0
0.6440946578979492,0.4055282592773438,0
0.6439670562744141,0.4059116363525391,0
0.6439476013183594,0.4059116363525391,0
0.6451463699340820,0.4059883117675781,0
0.6449369430541992,0.4059883117675781,0
0.6447864532470703,0.4061891555786133,0
0.6449792861938476,0.4061891555786133,0
0.6449563980102538,0.4064912796020508,0
0.6455520629882813,0.4064912796020508,0
0.6452573776245117,0.4065250396728515,0
0.6450736999511718,0.4065250396728515,0
0.6448356628417968,0.4068540573120117,0
0.6448768615722656,0.4068540573120117,0
0.6459051132202148,0.4067642211914063,0
0.6456024169921875,0.4067642211914063,0
0.6453695297241211,0.4068626403808593,0
0.6454587936401367,0.4068626403808593,0
0.6453271865844726,0.4069444656372070,0
0.6457780838012696,0.4069444656372070,0
0.6453969955444335,0.4067195892333984,0
0.6451177597045898,0.4067195892333984,0
0.6448299407958984,0.4069353103637695,0
0.6447818756103515,0.4069353103637695,0
0.6457271575927734,0.4066875457763672,0
0.6452859878540039,0.4066875457763672,0
0.6449260711669922,0.4065359115600586,0
0.6450960159301757,0.4065359115600586,0
0.6449169158935547,0.4065582275390625,0
0.6454216003417969,0.4065582275390625,0
0.6449872970581054,0.4063791275024414,0
0.6447515487670898,0.4063791275024414,0
0.6445100784301757,0.4065553665161133,0
0.6445072174072265,0.4065553665161133,0
0.6455125808715820,0.4064380645751953,0
0.6450685501098633,0.4064380645751953,0
0.6448059082031250,0.4065027236938477,0
0.6450176239013672,0.4065027236938477,0
0.6449478149414062,0.4066131591796875,0
0.6454067230224609,0.4066131591796875,0
0.6450611114501953,0.4065387725830078,0
0.6449295043945312,0.4065387725830078,0
0.6447755813598632,0.4070011138916015,0
0.6447601318359375,0.4070011138916015,0
0.6458089828491210,0.4069272994995117,0
0.6454828262329101,0.4069272994995117,0
0.6452848434448242,0.4070743560791015,0
0.6455526351928711,0.4070743560791015,0
0.6454948425292969,0.4073049545288086,0
0.6460899353027344,0.4073049545288086,0
0.6457059860229492,0.4072134017944336,0
0.6456350326538086,0.4072134017944336,0
0.6454393386840820,0.4076425552368164,0
0.6455348968505860,0.4076425552368164,0
0.6465471267700195,0.4076173782348633,0
0.6461826324462890,0.4076173782348633,0
0.6458089828491210,0.4077266693115234,0
0.6461877822875977,0.4079830169677734,0
0.6467634201049804,0.4079830169677734,0
0.6463371276855469,0.4078868865966797,0
0.6461700439453125,0.4078868865966797,0
0.6460435867309570,0.4082725524902344,0
0.6460756301879883,0.4082725524902344,0
0.6470884323120117,0.4082239151000976,0
0.6467004776000976,0.4082239151000976,0
0.6464773178100586,0.4082645416259765,0
0.6466484069824219,0.4082645416259765,0
0.6466066360473632,0.4084236145019531,0
0.6471273422241210,0.4084236145019531,0
0.6467834472656250,0.4082914352416992,0
0.6466432571411133,0.4082914352416992,0
0.6464876174926758,0.4086828231811523,0
0.6464750289916992,0.4086828231811523,0
0.6474958419799804,0.4085586547851562,0
0.6471199035644531,0.4085586547851562,0
0.6469001770019531,0.4086439132690430,0
0.6470821380615234,0.4086439132690430,0
0.6469774246215820,0.4087680816650390,0
0.6475381851196289,0.4087680816650390,0
0.6472108840942382,0.4086799621582031,0
0.6470163345336913,0.4086799621582031,0
0.6468315124511719,0.4090501785278320,0
0.6468389511108398,0.4090501785278320,0
0.6478254318237304,0.4089025497436523,0
0.6474363327026367,0.4089025497436523,0
0.6472251892089843,0.4089145660400391,0
0.6474168777465820,0.4089145660400391,0
0.6473218917846679,0.4090627670288086,0
0.6478105545043945,0.4090627670288086,0
0.6474243164062500,0.4087617874145508,0
0.6471353530883789,0.4087617874145508,0
0.6469253540039063,0.4090089797973633,0
0.6467290878295898,0.4090089797973633,0
0.6475507736206054,0.4085454940795898,0
0.6468549728393554,0.4085454940795898,0
0.6463199615478515,0.4079292297363281,0
0.6460779190063476,0.4079292297363281,0
0.6456110000610351,0.4072860717773437,0
0.6455869674682617,0.4072860717773437,0
0.6447063446044922,0.4060741424560547,0
0.6439441680908203,0.4060741424560547,0
0.6434720993041992,0.4056015014648438,0
0.6430297851562500,0.4056015014648438,0
0.6436826705932617,0.4047031402587891,0
0.6429954528808594,0.4047031402587891,0
0.6425806045532226,0.4041028976440429,0
0.6423889160156250,0.4041028976440429,0
0.6421051025390625,0.4037790298461914,0
0.6423974990844726,0.4037790298461914,0
0.6418933868408203,0.4032726287841797,0
0.6415929794311523,0.4032726287841797,0
0.6414121627807617,0.4034866333007812,0
0.6413646697998047,0.4034866333007812,0
0.6422842025756835,0.4033899307250977,0
0.6419981002807617,0.4033899307250977,0
0.6418092727661132,0.4034860610961914,0
0.6419837951660156,0.4034860610961914,0
0.6420375823974609,0.4038854598999023,0
0.6426578521728515,0.4038854598999023,0
0.6423591613769531,0.4038459777832031,0
0.6422824859619141,0.4038459777832031,0
0.6421966552734375,0.4045640945434570,0
0.6423660278320312,0.4045640945434570,0
0.6433118820190430,0.4045429229736328,0
0.6430051803588867,0.4045429229736328,0
0.6429479598999023,0.4047500610351563,0
0.6431362152099609,0.4047500610351563,0
0.6431625366210937,0.4050951004028320,0
0.6438245773315430,0.4050951004028320,0
0.6434526443481445,0.4050058364868164,0
0.6432621002197265,0.4050058364868164,0
0.6432552337646484,0.4055780410766601,0
0.6433061599731446,0.4055780410766601,0
0.6443017959594727,0.4055906295776367,0
0.6439550399780273,0.4055906295776367,0
0.6438995361328125,0.4057971954345703,0
0.6441856384277344,0.4057971954345703,0
0.6441123962402343,0.4061588287353515,0
0.6447343826293945,0.4061588287353515,0
0.6444900512695312,0.4061422348022461,0
0.6443630218505859,0.4061422348022461,0
0.6443784713745117,0.4067596435546875,0
0.6444110870361328,0.4067596435546875,0
0.6454021453857421,0.4066726684570313,0
0.6450994491577148,0.4066726684570313,0
0.6449220657348632,0.4067493438720703,0
0.6451543807983399,0.4067493438720703,0
0.6450639724731445,0.4069112777709961,0
0.6455984115600586,0.4069112777709961,0
0.6451881408691406,0.4064987182617187,0
0.6449003219604492,0.4064987182617187,0
0.6447641372680664,0.4069381713867187,0
0.6446662902832031,0.4069381713867187,0
0.6455160140991211,0.4065364837646484,0
0.6450485229492188,0.4065364837646484,0
0.6447149276733398,0.4064146041870117,0
0.6448053359985352,0.4064146041870117,0
0.6446079254150391,0.4063871383666992,0
0.6450468063354492,0.4063871383666992,0
0.6446010589599609,0.4059396743774414,0
0.6443052291870117,0.4059396743774414,0
0.6440734863281250,0.4062812805175781,0
0.6439950942993163,0.4062812805175781,0
0.6449346542358398,0.4059906005859375,0
0.6444740295410156,0.4059906005859375,0
0.6442405700683593,0.4059820175170898,0
0.6444150924682617,0.4059820175170898,0
0.6443098068237304,0.4061342239379883,0
0.6448928833007812,0.4061342239379883,0
0.6444185256958007,0.4058034896850586,0
0.6442434310913085,0.4058034896850586,0
0.6441867828369140,0.4063842773437500,0
0.6442119598388671,0.4063842773437500,0
0.6451532363891601,0.4061862945556641,0
0.6447538375854492,0.4061862945556641,0
0.6445936203002930,0.4063516616821289,0
0.6447858810424805,0.4063516616821289,0
0.6447652816772461,0.4065307617187500,0
0.6453323364257812,0.4065307617187500,0
0.6448894500732422,0.4063110351562500,0
0.6447486877441406,0.4063110351562500,0
0.6447160720825195,0.4069765090942383,0
0.6446966171264649,0.4069765090942383,0
0.6456081390380859,0.4068111419677734,0
0.6452219009399414,0.4068111419677734,0
