REDsignal,IRsignal,synced
1.0738946914672851,0.5779552459716797,0
1.0562026977539063,0.5891527175903321,0
1.0614160537719726,0.5759782791137695,0
1.0794982910156250,0.5759782791137695,0
1.0698228836059569,0.5834644317626952,0
1.0576549530029296,0.5834644317626952,0
1.0625164031982421,0.5810428619384765,0
1.0741401672363280,0.5810428619384765,0
1.0689170837402344,0.5869972229003906,0
1.0704099655151367,0.5869972229003906,0
1.0665584564208983,0.5911479949951172,0
1.0573196411132812,0.5911479949951172,0
1.0625621795654296,0.5778333663940429,0
1.0809940338134765,0.5778333663940429,0
1.0714307785034178,0.5853984832763671,0
1.0594528198242188,0.5853984832763671,0
1.0642564773559571,0.5829998016357422,0
1.0758104324340820,0.5829998016357422,0
1.0705301284790039,0.5887498855590820,0
1.0722192764282226,0.5887498855590820,0
1.0679277420043944,0.5930511474609375,0
1.0586271286010742,0.5930511474609375,0
1.0638278961181640,0.5795957565307617,0
1.0823553085327149,0.5795957565307617,0
1.0709260940551757,0.5806011199951172,0
1.0798862457275391,0.5758443832397461,0
1.0777027130126953,0.5904006958007812,0
1.0666494369506836,0.5904006958007812,0
1.0693445205688477,0.5950201034545898,0
1.0600255966186523,0.5950201034545898,0
1.0650987625122070,0.5814474105834960,0
1.0838298797607422,0.5814474105834960,0
1.0741985321044922,0.5891664505004882,0
1.0628379821777343,0.5891664505004882,0
1.0676118850708007,0.5866973876953124,0
1.0792453765869141,0.5866973876953124,0
1.0737339019775389,0.5919078826904297,0
1.0758115768432617,0.5919078826904297,0
1.0704860687255859,0.5965238571166992,0
1.0608638763427733,0.5965238571166992,0
1.0661504745483399,0.5829483032226562,0
1.0849296569824218,0.5829483032226562,0
1.0751134872436523,0.5906255722045898,0
1.0640132904052735,0.5906255722045898,0
1.0689273834228514,0.5881628036499024,0
1.0805065155029296,0.5881628036499024,0
1.0748914718627929,0.5930637359619141,0
1.0770967483520508,0.5930637359619141,0
1.0714124679565429,0.5980058670043945,0
1.0616266250610351,0.5980058670043945,0
1.0669086456298829,0.5842517852783203,0
1.0859121322631835,0.5842517852783203,0
1.0761892318725585,0.5919673919677734,0
1.0652034759521485,0.5919673919677734,0
1.0702079772949218,0.5894834518432617,0
1.0815874099731444,0.5894834518432617,0
1.0759489059448242,0.5943243026733398,0
1.0783510208129883,0.5943243026733398,0
1.0721300125122071,0.5992366790771484,0
1.0621725082397460,0.5992366790771484,0
1.0675065994262696,0.5854671478271484,0
1.0865781784057618,0.5854671478271484,0
1.0768884658813476,0.5927478790283203,0
1.0659456253051758,0.5927478790283203,0
1.0705810546874999,0.5895378112792968,0
1.0811651229858399,0.5895378112792968,0
1.0747673034667968,0.5921476364135742,0
1.0762727737426758,0.5921476364135742,0
1.0680856704711914,0.5938430786132812,0
1.0562582015991211,0.5938430786132812,0
1.0601428985595702,0.5762083053588867,0
1.0773582458496094,0.5762083053588867,0
1.0662586212158203,0.5802326202392578,0
1.0539264678955078,0.5802326202392578,0
1.0577407836914061,0.5749774932861328,0
1.0675077438354492,0.5749774932861328,0
1.0609233856201172,0.5772331237792968,0
1.0629243850708008,0.5772331237792968,0
1.0554903030395508,0.5808242797851563,0
1.0446893692016601,0.5808242797851563,0
1.0501447677612303,0.5663383483886718,0
1.0690246582031249,0.5663383483886718,0
1.0595489501953124,0.5735692977905273,0
1.0489322662353515,0.5735692977905273,0
1.0536970138549804,0.5709268569946289,0
1.0644029617309569,0.5709268569946289,0
1.0587884902954101,0.5749580383300781,0
1.0617822647094726,0.5749580383300781,0
1.0543281555175781,0.5798343658447266,0
1.0437738418579101,0.5798343658447266,0
1.0497556686401366,0.5661186218261719,0
1.0689239501953125,0.5661186218261719,0
1.0600078582763672,0.5737970352172851,0
1.0495508193969727,0.5737970352172851,0
1.0542457580566407,0.5713954925537109,0
1.0648138046264648,0.5713954925537109,0
1.0592170715332030,0.5751600265502930,0
1.0621885299682616,0.5751600265502930,0
1.0543785095214844,0.5800420761108398,0
1.0437961578369139,0.5800420761108398,0
1.0498998641967774,0.5663005828857421,0
1.0689245223999022,0.5663005828857421,0
1.0602813720703124,0.5737730026245117,0
1.0499078750610351,0.5737730026245117,0
1.0642112731933593,0.5713663101196289,0
1.0642112731933593,0.5761104583740234,0
1.0452341079711913,0.5750850677490235,0
1.0542629241943360,0.5872055053710937,0
1.0542629241943360,0.5693939208984374,0
1.0598608016967772,0.5800306320190429,0
1.0499942779541016,0.5665632247924804,0
1.0690155029296875,0.5665632247924804,0
1.0608947753906250,0.5743675231933594,0
1.0505573272705078,0.5743675231933594,0
1.0550662994384765,0.5724918365478515,0
1.0651714324951171,0.5724918365478515,0
1.0599300384521484,0.5762941360473632,0
1.0634513854980467,0.5762941360473632,0
1.0549816131591796,0.5814668655395507,0
1.0442630767822265,0.5814668655395507,0
1.0509967803955078,0.5681940078735351,0
1.0701427459716797,0.5681940078735351,0
1.0621353149414061,0.5758472442626953,0
1.0521503448486327,0.5758472442626953,0
1.0563686370849610,0.5736854553222656,0
1.0661041259765625,0.5736854553222656,0
1.0606201171875000,0.5767873764038086,0
1.0641540527343749,0.5767873764038086,0
1.0551080703735352,0.5812294006347656,0
1.0440347671508790,0.5812294006347656,0
1.0505796432495116,0.5676572799682617,0
1.0694377899169922,0.5676572799682617,0
1.0617542266845703,0.5746868133544921,0
1.0514682769775390,0.5746868133544921,0
1.0551538467407227,0.5723424911499023,0
1.0646089553833007,0.5723424911499023,0
1.0594900131225586,0.5754243850708007,0
1.0631086349487304,0.5754243850708007,0
1.0539505004882812,0.5802131652832031,0
1.0431243896484375,0.5802131652832031,0
1.0500108718872070,0.5672481536865234,0
1.0690727233886719,0.5672481536865234,0
1.0619419097900391,0.5749895095825195,0
1.0521228790283204,0.5749895095825195,0
1.0557895660400389,0.5732139587402344,0
1.0652360916137695,0.5732139587402344,0
1.0602470397949217,0.5765241622924805,0
1.0642066955566405,0.5765241622924805,0
1.0548694610595704,0.5817626953125000,0
1.0442848205566406,0.5817626953125000,0
1.0515930175781250,0.5694139480590820,0
1.0708099365234374,0.5694139480590820,0
1.0638977050781249,0.5774511337280274,0
1.0543304443359374,0.5774511337280274,0
1.0579673767089843,0.5761894226074219,0
1.0674619674682617,0.5761894226074219,0
1.0628545761108399,0.5794412612915039,0
1.0668931961059569,0.5794412612915039,0
1.0574192047119140,0.5847364425659179,0
1.0468660354614256,0.5847364425659179,0
1.0543104171752928,0.5726160049438477,0
1.0733345031738282,0.5726160049438477,0
1.0668102264404296,0.5804798126220703,0
1.0571548461914062,0.5804798126220703,0
1.0607179641723632,0.5790029525756836,0
1.0698446273803710,0.5790029525756836,0
1.0652807235717774,0.5818084716796875,0
1.0693050384521483,0.5818084716796875,0
1.0592800140380858,0.5869016647338867,0
1.0486867904663086,0.5869016647338867,0
1.0561975479125976,0.5747663497924804,0
1.0751707077026367,0.5747663497924804,0
1.0686613082885741,0.5824018478393554,0
1.0590476989746094,0.5824018478393554,0
1.0622652053833008,0.5806932449340820,0
1.0711269378662109,0.5806932449340820,0
1.0664188385009765,0.5829385757446289,0
1.0705198287963866,0.5829385757446289,0
1.0602733612060546,0.5879230499267578,0
1.0673664093017579,0.5879230499267578,0
1.0570701599121093,0.5757013320922851,0
1.0643217086791992,0.5757013320922851,0
1.0696815490722655,0.5831050872802734,0
1.0600662231445312,0.5831050872802734,0
1.0630428314208984,0.5814353942871093,0
1.0717397689819335,0.5814353942871093,0
1.0671455383300781,0.5834930419921874,0
1.0713672637939453,0.5834930419921874,0
1.0608856201171875,0.5881954193115234,0
1.0500749588012694,0.5881954193115234,0
1.0577499389648437,0.5764326095581055,0
1.0765211105346679,0.5764326095581055,0
1.0705181121826171,0.5839794158935546,0
1.0610000610351562,0.5839794158935546,0
1.0639274597167969,0.5823400497436523,0
1.0725471496582031,0.5823400497436523,0
1.0680513381958008,0.5842615127563476,0
1.0723445892333985,0.5842615127563476,0
1.0616609573364257,0.5892940521240234,0
1.0508388519287108,0.5892940521240234,0
1.0588668823242187,0.5778717041015625,0
1.0777433395385743,0.5778717041015625,0
1.0718902587890624,0.5855300903320312,0
1.0624843597412108,0.5855300903320312,0
1.0653579711914063,0.5841304779052734,0
1.0760828018188475,0.5841304779052734,0
1.0696134567260742,0.5859357833862304,0
1.0741086959838866,0.5859357833862304,0
1.0632041931152343,0.5909786224365234,0
1.0526458740234375,0.5909786224365234,0
1.0605972290039063,0.5799367904663085,0
1.0794233322143554,0.5799367904663085,0
1.0738815307617187,0.5876111984252930,0
1.0645322799682617,0.5876111984252930,0
1.0672227859497070,0.5863254547119140,0
1.0756914138793945,0.5863254547119140,0
1.0714021682739256,0.5877422332763672,0
1.0760427474975585,0.5877422332763672,0
1.0651010513305663,0.5929052352905273,0
1.0545089721679688,0.5929052352905273,0
1.0623310089111329,0.5821283340454101,0
1.0811536788940430,0.5821283340454101,0
1.0757829666137695,0.5898685455322266,0
1.0665882110595704,0.5898685455322266,0
1.0692117691040040,0.5884122848510742,0
1.0774835586547851,0.5884122848510742,0
1.0732812881469727,0.5893466949462890,0
1.0778160095214844,0.5893466949462890,0
1.0668542861938477,0.5946664810180664,0
1.0562078475952148,0.5946664810180664,0
1.0641025543212890,0.5840887069702149,0
1.0828536987304687,0.5840887069702149,0
1.0776369094848632,0.5916200637817383,0
1.0685016632080078,0.5916200637817383,0
1.0708076477050781,0.5901569366455078,0
1.0789964675903321,0.5901569366455078,0
1.0747901916503906,0.5908361434936523,0
1.0795120239257812,0.5908361434936523,0
1.0682767868041991,0.5961336135864258,0
1.0577167510986327,0.5961336135864258,0
1.0655622482299805,0.5858642578125000,0
1.0842441558837890,0.5858642578125000,0
1.0791761398315429,0.5933109283447265,0
1.0700374603271483,0.5933109283447265,0
1.0722221374511718,0.5917562484741211,0
1.0802038192749024,0.5917562484741211,0
1.0763597488403320,0.5919982910156250,0
1.0809391021728516,0.5919982910156250,0
1.0697296142578125,0.5973484039306640,0
1.0591472625732421,0.5973484039306640,0
1.0668113708496094,0.5873651504516602,0
1.0854108810424805,0.5873651504516602,0
1.0806735992431640,0.5947814941406250,0
1.0715251922607421,0.5947814941406250,0
1.0735633850097657,0.5931810379028321,0
1.0814529418945311,0.5931810379028321,0
1.0772935867309570,0.5930826187133789,0
1.0820646286010742,0.5930826187133789,0
1.0707944869995116,0.5986015319824218,0
1.0602052688598633,0.5986015319824218,0
1.0678567886352539,0.5888282775878906,0
1.0864242553710937,0.5888282775878906,0
1.0817956924438477,0.5959802627563476,0
1.0726415634155273,0.5959802627563476,0
1.0745172500610352,0.5943351745605469,0
1.0822191238403320,0.5943351745605469,0
1.0782714843749999,0.5937927246093749,0
1.0830905914306641,0.5937927246093749,0
1.0717454910278319,0.5993448257446289,0
1.0611007690429688,0.5993448257446289,0
1.0687265396118164,0.5897815704345702,0
1.0872425079345702,0.5897815704345702,0
1.0825876235961913,0.5968643188476562,0
1.0734066009521483,0.5968643188476562,0
1.0752634048461913,0.5951780319213867,0
1.0828611373901367,0.5951780319213867,0
1.0788333892822266,0.5942253112792969,0
1.0837972640991211,0.5942253112792969,0
1.0724493026733397,0.6000114440917969,0
1.0616815567016602,0.6000114440917969,0
1.0690830230712891,0.5905511856079101,0
1.0877334594726562,0.5905511856079101,0
1.0831735610961915,0.5973117828369140,0
1.0739479064941406,0.5973117828369140,0
1.0753040313720703,0.5949697494506836,0
1.0825819015502929,0.5949697494506836,0
1.0780677795410156,0.5927558898925781,0
1.0824428558349608,0.5927558898925781,0
1.0703601837158203,0.5965044021606445,0
1.0586746215820313,0.5965044021606445,0
1.0644355773925780,0.5844749450683594,0
1.0815736770629882,0.5844749450683594,0
1.0755031585693360,0.5875751495361328,0
1.0646850585937500,0.5875751495361328,0
1.0644710540771485,0.5820310592651367,0
1.0703842163085937,0.5820310592651367,0
1.0650941848754882,0.5776679992675781,0
1.0690509796142578,0.5776679992675781,0
1.0568115234375000,0.5815412521362304,0
1.0452369689941405,0.5815412521362304,0
1.0517028808593749,0.5714738845825195,0
1.0700180053710937,0.5714738845825195,0
1.0654169082641600,0.5773950576782226,0
1.0560888290405273,0.5773950576782226,0
1.0573608398437500,0.5750415802001952,0
1.0648292541503905,0.5750415802001952,0
1.0605766296386718,0.5728580474853515,0
1.0656063079833984,0.5728580474853515,0
1.0542320251464843,0.5786270141601563,0
1.0435684204101563,0.5786270141601563,0
1.0502643585205078,0.5701229095458984,0
1.0690647125244139,0.5701229095458984,0
1.0650157928466797,0.5767736434936523,0
1.0560762405395507,0.5767736434936523,0
1.0574930191040040,0.5749065399169921,0
1.0648630142211915,0.5749065399169921,0
1.0607414245605469,0.5727905273437500,0
1.0661355972290039,0.5727905273437500,0
1.0549816131591796,0.5788072586059571,0
1.0442470550537108,0.5788072586059571,0
1.0506923675537110,0.5705400466918945,0
1.0697044372558593,0.5705400466918945,0
1.0660171508789062,0.5780073165893554,0
1.0771202087402343,0.5710636138916015,0
1.0694326400756835,0.5784719467163085,0
1.0513669967651367,0.5784719467163085,0
1.0555944442749023,0.5728998184204102,0
1.0641912460327148,0.5728998184204102,0
1.0629535675048827,0.5754089355468750,0
1.0549083709716796,0.5754089355468750,0
1.0606201171875000,0.5774225234985352,0
1.0553340911865234,0.5774225234985352,0
1.0665052413940430,0.5719539642333984,0
1.0778491973876954,0.5719539642333984,0
1.0704820632934571,0.5795413970947265,0
1.0522459030151368,0.5795413970947265,0
1.0564670562744141,0.5743846893310547,0
1.0651027679443359,0.5743846893310547,0
1.0641620635986329,0.5770557403564452,0
1.0560436248779297,0.5770557403564452,0
1.0617885589599609,0.5792810440063476,0
1.0564264297485351,0.5792810440063476,0
1.0676628112792967,0.5735298156738281,0
1.0790468215942381,0.5735298156738281,0
1.0715555191040038,0.5805816650390625,0
1.0533164978027343,0.5805816650390625,0
1.0573637008666992,0.5751388549804687,0
1.0659393310546874,0.5751388549804687,0
1.0647886276245118,0.5776422500610351,0
1.0565563201904296,0.5776422500610351,0
1.0622669219970702,0.5798555374145508,0
1.0566839218139648,0.5798555374145508,0
1.0677474975585937,0.5735841751098633,0
1.0791275024414062,0.5735841751098633,0
1.0718152999877930,0.5802366256713867,0
1.0533096313476562,0.5802366256713867,0
1.0573013305664063,0.5749895095825195,0
1.0657819747924804,0.5749895095825195,0
1.0647731781005858,0.5776290893554688,0
1.0565706253051756,0.5776290893554688,0
1.0624076843261718,0.5804672241210938,0
1.0569030761718750,0.5804672241210938,0
1.0679197311401367,0.5742639541625977,0
1.0793684005737305,0.5742639541625977,0
1.0723508834838866,0.5809244155883789,0
1.0541399002075196,0.5809244155883789,0
1.0580675125122070,0.5761871337890625,0
1.0666900634765624,0.5761871337890625,0
1.0659090042114256,0.5792581558227539,0
1.0577133178710938,0.5792581558227539,0
1.0638805389404296,0.5824161529541015,0
1.0583919525146483,0.5824161529541015,0
1.0692953109741210,0.5761631011962890,0
1.0809946060180664,0.5761631011962890,0
1.0742425918579102,0.5827932357788086,0
1.0558605194091797,0.5827932357788086,0
1.0600536346435547,0.5783643722534180,0
1.0685382843017577,0.5783643722534180,0
1.0679265975952148,0.5815469741821289,0
1.0597366333007812,0.5815469741821289,0
1.0657602310180663,0.5848211288452149,0
1.0602745056152343,0.5848211288452149,0
1.0708013534545897,0.5782241821289062,0
1.0824285507202147,0.5782241821289062,0
1.0759340286254881,0.5845813751220703,0
1.0575227737426758,0.5845813751220703,0
1.0614561080932616,0.5802280426025390,0
1.0700454711914062,0.5802280426025390,0
1.0693880081176756,0.5836057662963867,0
1.0611917495727539,0.5836057662963867,0
1.0672719955444336,0.5868942260742187,0
1.0617250442504882,0.5868942260742187,0
1.0719812393188477,0.5800048828125000,0
1.0837406158447265,0.5800048828125000,0
1.0774211883544922,0.5862482070922851,0
1.0590208053588868,0.5862482070922851,0
1.0629804611206055,0.5819280624389648,0
1.0716711044311522,0.5819280624389648,0
1.0708717346191405,0.5855764389038086,0
1.0627830505371094,0.5855764389038086,0
1.0688655853271485,0.5888357162475586,0
1.0742202758789061,0.5868490219116210,0
1.0666202545166015,0.5839691162109375,0
1.0790765762329102,0.5740207672119141,0
1.0645580291748047,0.5991462707519531,0
1.0732240676879883,0.5835474014282226,0
1.0724481582641601,0.5875568389892578,0
1.0704900741577148,0.5904064178466797,0
1.0756805419921875,0.5882137298583984,0
1.0681159973144532,0.5849607467651367,0
1.0706943511962890,0.5821340560913085,0
1.0656858444213866,0.6003862380981445,0
1.0735485076904296,0.5892574310302734,0
1.0608718872070313,0.5990724563598633,0
1.0768020629882813,0.5745460510253906,0
1.0680335998535155,0.5896631240844726,0
1.0763877868652343,0.5861457824707031,0
1.0815519332885741,0.5905780792236328,0
1.0671764373779296,0.6019672393798828,0
1.0690910339355468,0.5812236785888671,0
1.0676427841186522,0.5916812896728515,0
1.0675214767456054,0.5943271636962890,0
1.0785232543945311,0.5917465209960937,0
1.0714216232299805,0.5881261825561523,0
1.0836427688598633,0.5778911590576171,0
1.0692089080810547,0.6042875289916992,0
1.0713346481323243,0.5892602920532226,0
1.0650466918945312,0.5944255828857422,0
1.0650466918945312,0.5887739181518554,0
1.0718244552612304,0.5939958572387695,0
1.0787624359130858,0.5890806198120117,0
1.0854320526123047,0.5948936462402343,0
1.0755941390991210,0.5863197326660156,0
1.0731571197509766,0.5882646560668945,0
1.0617994308471679,0.5959173202514648,0
1.0669069290161133,0.5906581878662109,0
1.0822740554809569,0.5955373764038085,0
1.0801248550415039,0.5906066894531250,0
1.0865037918090821,0.5805467605590821,0
1.0827878952026366,0.5890102386474609,0
1.0718027114868163,0.5922883987426758,0
1.0795709609985351,0.5971956253051758,0
1.0673864364624024,0.6071731567382812,0
1.0820903778076172,0.5810657501220703,0
1.0728744506835937,0.5951179504394531,0
1.0799526214599608,0.5901071548461914,0
1.0854732513427734,0.5948204040527344,0
1.0704631805419922,0.5903194427490234,0
1.0723897933959960,0.5943861007690430,0
1.0648881912231445,0.5874309539794922,0
1.0740800857543944,0.5874309539794922,0
1.0748199462890624,0.5921453475952149,0
1.0860643386840820,0.5843095779418945,0
1.0789415359497070,0.5872215270996094,0
1.0681320190429686,0.5775627136230469,0
1.0638856887817383,0.5765384674072266,0
1.0511198043823242,0.5848503112792969,0
1.0733911514282226,0.5772291183471679,0
1.0646524429321289,0.5848634719848632,0
1.0654758453369140,0.5746381759643554,0
1.0599632263183594,0.5845361709594726,0
1.0609886169433593,0.5702608108520507,0
1.0673274993896484,0.5710727691650390,0
1.0587667465209960,0.5797496795654297,0
1.0638999938964844,0.5699975967407226,0
1.0620283126831054,0.5826387405395508,0
1.0556447982788086,0.5826387405395508,0
1.0766080856323241,0.5734571456909180,0
1.0591930389404296,0.5732254028320313,0
1.0610137939453124,0.5707923889160156,0
1.0567142486572265,0.5895183563232421,0
1.0645259857177733,0.5806280136108398,0
1.0645259857177733,0.5817289352416992,0
1.0630491256713868,0.5838638305664062,0
1.0677068710327149,0.5660694122314452,0
1.0598768234252929,0.5842889785766602,0
1.0650089263916016,0.5736333847045898,0
1.0678012847900391,0.5704891204833984,0
1.0567668914794921,0.5756189346313476,0
1.0640905380249024,0.5811750411987304,0
1.0529685974121092,0.5914815902709961,0
1.0664171218872069,0.5829008102416992,0
1.0664171218872069,0.5774122238159179,0
1.0585235595703124,0.5716306686401367,0
1.0692037582397460,0.5604125976562500,0
1.0554719924926756,0.5872999191284179,0
1.0643960952758789,0.5740201950073242,0
1.0578832626342773,0.5800958633422851,0
1.0522024154663085,0.5729290008544922,0
1.0659490585327147,0.5768743515014648,0
1.0627790451049803,0.5768743515014648,0
1.0633363723754883,0.5715694427490234,0
1.0692140579223632,0.5779724121093750,0
1.0561569213867188,0.5751960754394531,0
1.0597143173217773,0.5712598800659180,0
1.0539287567138671,0.5929309844970703,0
1.0716499328613280,0.5749820709228516,0
1.0584451675415039,0.5791854858398438,0
1.0645666122436523,0.5749048233032227,0
1.0712991714477538,0.5633136749267578,0
1.0543802261352540,0.5808855056762695,0
1.0683717727661133,0.5784467697143555,0
1.0625146865844726,0.5836320877075195,0
1.0569259643554687,0.5782299041748047,0
1.0658643722534180,0.5864662170410156,0
1.0671941757202148,0.5863706588745117,0
1.0807971954345703,0.5777681350708007,0
1.0569013595581054,0.5835176467895508,0
1.0652137756347655,0.5752241134643554,0
1.0648584365844727,0.5763233184814452,0
1.0517898559570311,0.5857686996459961,0
1.0759689331054687,0.5798246383666992,0
1.0674064636230469,0.5892539978027344,0
1.0680553436279296,0.5785457611083984,0
1.0642210006713866,0.5881919860839844,0
1.0656280517578125,0.5757362365722656,0
1.0656280517578125,0.5747646331787110,0
1.0653070449829101,0.5863500595092773,0
1.0691236495971679,0.5774780273437500,0
1.0676347732543945,0.5882583618164062,0
1.0610378265380860,0.5901546478271484,0
1.0825601577758788,0.5795328140258789,0
1.0648635864257812,0.5782876968383789,0
1.0666603088378905,0.5760738372802734,0
1.0625501632690428,0.5760738372802734,0
1.0704631805419922,0.5879465103149414,0
1.0704631805419922,0.5897615432739257,0
1.0691465377807616,0.5921459197998047,0
1.0739192962646484,0.5748476028442383,0
1.0667261123657226,0.5909929275512695,0
1.0700557708740235,0.5801130294799804,0
1.0759300231933593,0.5781011581420898,0
1.0645471572875975,0.5850614547729492,0
1.0726604461669922,0.5922941207885742,0
1.0635915756225585,0.6033428192138671,0
1.0762310028076172,0.5947139739990234,0
1.0762310028076172,0.5882555007934570,0
1.0689817428588866,0.5824293136596680,0
1.0779968261718749,0.5714635848999023,0
1.0666660308837890,0.5872375488281250,0
1.0710170745849610,0.5872375488281250,0
1.0655937194824219,0.5943077087402343,0
1.0817384719848633,0.5863615036010742,0
1.0779029846191406,0.5899000167846680,0
1.0739994049072266,0.5946950912475586,0
1.0729476928710937,0.5839096069335937,0
1.0722284317016602,0.5816596984863281,0
1.0679958343505860,0.6002117156982422,0
1.0758058547973632,0.5959379196166992,0
1.0669624328613281,0.5959379196166992,0
1.0790742874145507,0.5981969833374023,0
1.0790742874145507,0.5913906097412109,0
1.0718278884887695,0.5854585647583007,0
1.0738283157348631,0.5853893280029296,0
1.0812309265136719,0.5833528518676757,0
1.0775379180908202,0.5876300811767577,0
1.0753589630126952,0.5978021621704102,0
1.0693668365478515,0.6002180099487304,0
1.0808727264404296,0.5933166503906250,0
1.0736497879028319,0.5872581481933593,0
1.0756296157836913,0.5872581481933593,0
1.0755231857299805,0.5851209640502929,0
1.0830293655395506,0.5851209640502929,0
1.0764667510986328,0.5977455139160156,0
1.0616020202636718,0.5977455139160156,0
1.0710016250610350,0.5915393829345703,0
1.0864156723022460,0.5915393829345703,0
1.0824645996093749,0.5948072433471679,0
1.0753944396972657,0.5900579452514648,0
1.0834218978881835,0.5865182876586914,0
1.0845096588134766,0.5865182876586914,0
1.0780900955200194,0.5990375518798828,0
1.0626932144165038,0.5990375518798828,0
1.0721815109252930,0.5925224304199218,0
1.0871480941772460,0.5925224304199218,0
1.0830648422241211,0.5956987380981446,0
1.0719686508178710,0.5956987380981446,0
1.0758773803710937,0.5895515441894531,0
1.0772266387939453,0.5895515441894531,0
1.0777971267700195,0.5872306823730469,0
1.0852437973022460,0.5872306823730469,0
1.0789581298828124,0.5999650955200195,0
1.0634857177734374,0.5999650955200195,0
1.0729230880737304,0.5934648513793945,0
1.0877363204956054,0.5934648513793945,0
1.0834968566894532,0.5965358734130859,0
1.0724018096923829,0.5965358734130859,0
1.0763494491577148,0.5903898239135742,0
1.0772638320922852,0.5903898239135742,0
1.0780952453613282,0.5876712799072266,0
1.0853479385375977,0.5876712799072266,0
1.0790668487548827,0.5998323440551757,0
1.0627372741699219,0.5998323440551757,0
1.0720315933227538,0.5920251846313477,0
1.0859390258789061,0.5920251846313477,0
1.0806352615356445,0.5930397033691406,0
1.0685405731201172,0.5930397033691406,0
1.0715589523315430,0.5842403411865235,0
1.0706954956054686,0.5842403411865235,0
1.0705593109130860,0.5786075592041016,0
1.0767368316650390,0.5786075592041016,0
1.0695894241333008,0.5888809204101563,0
1.0523202896118165,0.5888809204101563,0
1.0613948822021484,0.5802949905395508,0
1.0749904632568359,0.5802949905395508,0
1.0699304580688476,0.5820041656494140,0
1.0583690643310546,0.5820041656494140,0
1.0623338699340821,0.5751234054565429,0
1.0622348785400391,0.5751234054565429,0
1.0639114379882812,0.5721885681152343,0
1.0713644027709961,0.5721885681152343,0
1.0655977249145507,0.5848789215087891,0
1.0491657257080078,0.5848789215087891,0
1.0590923309326172,0.5781126022338867,0
1.0732137680053710,0.5781126022338867,0
1.0686189651489257,0.5810737609863281,0
1.0627029418945313,0.5810737609863281,0
1.0621816635131835,0.5753986358642578,0
1.0623544692993163,0.5753986358642578,0
1.0644870758056639,0.5728202819824219,0
1.0722375869750975,0.5728202819824219,0
1.0665779113769531,0.5857292175292969,0
1.0500280380249023,0.5857292175292969,0
1.0601709365844727,0.5791065216064453,0
1.0739130020141601,0.5791065216064453,0
1.0694309234619139,0.5821083068847656,0
1.0584348678588866,0.5821083068847656,0
1.0630657196044921,0.5764297485351563,0
1.0629930496215820,0.5764297485351563,0
1.0654157638549804,0.5736791610717773,0
1.0733522415161132,0.5736791610717773,0
1.0677761077880858,0.5866807937622071,0
1.0509859085083006,0.5866807937622071,0
1.0611865997314454,0.5801113128662109,0
1.0749464035034180,0.5801113128662109,0
1.0701553344726562,0.5831502914428711,0
1.0593297958374024,0.5831502914428711,0
1.0641946792602539,0.5779294967651367,0
1.0639932632446290,0.5779294967651367,0
1.0670099258422852,0.5752641677856445,0
1.0749904632568359,0.5752641677856445,0
1.0696352005004883,0.5885856628417968,0
1.0527883529663085,0.5885856628417968,0
1.0630685806274414,0.5819417953491210,0
1.0765903472900391,0.5819417953491210,0
1.0718015670776366,0.5849452972412109,0
1.0607711791992187,0.5849452972412109,0
1.0656606674194335,0.5796014785766601,0
1.0651782989501952,0.5796014785766601,0
1.0684410095214842,0.5766242980957031,0
1.0763277053833007,0.5766242980957031,0
1.0710519790649413,0.5896362304687500,0
1.0538595199584961,0.5896362304687500,0
1.0638319015502928,0.5826324462890625,0
1.0770441055297850,0.5826324462890625,0
1.0721643447875977,0.5852222442626953,0
1.0610441207885741,0.5852222442626953,0
1.0660812377929687,0.5798864364624023,0
1.0650884628295898,0.5798864364624023,0
1.0687454223632813,0.5765802383422851,0
1.0767791748046875,0.5765802383422851,0
1.0713804244995118,0.5897420883178711,0
1.0708848953247070,0.5897420883178711,0
1.0641798019409179,0.5829225540161133,0
1.0683912277221679,0.5829225540161133,0
1.0722656250000000,0.5857320785522461,0
1.0613044738769530,0.5857320785522461,0
1.0665521621704102,0.5807224273681640,0
1.0656675338745116,0.5807224273681640,0
1.0695854187011717,0.5775381088256836,0
1.0779384613037108,0.5775381088256836,0
1.0727485656738280,0.5910621643066406,0
1.0552888870239256,0.5910621643066406,0
1.0656492233276367,0.5846025466918945,0
1.0786016464233399,0.5846025466918945,0
1.0737785339355468,0.5875986099243163,0
1.0629472732543945,0.5875986099243163,0
1.0682968139648437,0.5830387115478516,0
1.0673933029174805,0.5830387115478516,0
1.0716791152954102,0.5798492431640625,0
1.0800968170166014,0.5798492431640625,0
1.0750631332397460,0.5934619903564453,0
1.0573945999145506,0.5934619903564453,0
1.0677978515625000,0.5869428634643554,0
1.0805677413940429,0.5869428634643554,0
1.0755329132080078,0.5898090362548828,0
1.0647096633911133,0.5898090362548828,0
1.0702280044555663,0.5853853225708008,0
1.0690818786621092,0.5853853225708008,0
1.0738534927368164,0.5819538116455077,0
1.0823736190795898,0.5819538116455077,0
1.0772993087768554,0.5955247879028320,0
1.0594579696655273,0.5955247879028320,0
1.0697095870971680,0.5889341354370117,0
1.0823089599609375,0.5889341354370117,0
1.0771625518798829,0.5917076110839844,0
1.0663570404052733,0.5917076110839844,0
1.0719314575195311,0.5873210906982421,0
1.0704923629760741,0.5873210906982421,0
1.0755861282348633,0.5834901809692382,0
1.0841056823730468,0.5834901809692382,0
1.0789403915405273,0.5971349716186524,0
1.0609199523925781,0.5971349716186524,0
1.0711704254150389,0.5903772354125977,0
1.0836925506591797,0.5903772354125977,0
1.0783630371093749,0.5930053710937500,0
1.0675512313842772,0.5930053710937500,0
1.0731273651123046,0.5887081146240234,0
1.0714948654174805,0.5887081146240234,0
1.0769285202026366,0.5848474502563477,0
1.0854927062988280,0.5848474502563477,0
1.0803812026977540,0.5984178543090820,0
1.0622159957885742,0.5984178543090820,0
1.0725683212280273,0.5917207717895507,0
1.0847843170166016,0.5917207717895507,0
1.0793575286865233,0.5943094253540039,0
1.0684318542480469,0.5943094253540039,0
1.0742540359497070,0.5901763916015624,0
1.0724750518798827,0.5901763916015624,0
1.0784116744995116,0.5861635208129883,0
1.0870668411254882,0.5861635208129883,0
1.0817173004150391,0.5996011734008789,0
1.0634325027465821,0.5996011734008789,0
1.0737133026123047,0.5928886413574218,0
1.0856306076049804,0.5928886413574218,0
1.0805339813232422,0.5952478408813476,0
1.0690847396850585,0.5952478408813476,0
1.0748313903808593,0.5907714843749999,0
1.0726684570312499,0.5907714843749999,0
1.0788700103759765,0.5859615325927734,0
1.0871286392211914,0.5859615325927734,0
1.0810541152954101,0.5978902816772461,0
1.0618160247802735,0.5978902816772461,0
1.0711229324340821,0.5890886306762695,0
1.0816726684570312,0.5890886306762695,0
1.0755111694335937,0.5888500213623047,0
1.0626840591430664,0.5888500213623047,0
1.0674945831298828,0.5823972702026367,0
1.0645334243774414,0.5823972702026367,0
1.0704030990600586,0.5762077331542969,0
1.0785999298095703,0.5762077331542969,0
1.0721179962158203,0.5880277633666992,0
1.0531728744506836,0.5880277633666992,0
1.0627424240112304,0.5805444717407227,0
1.0739576339721679,0.5805444717407227,0
1.0689971923828125,0.5821546554565430,0
1.0569831848144531,0.5821546554565430,0
1.0630411148071288,0.5780193328857421,0
1.0607030868530274,0.5780193328857421,0
1.0679420471191405,0.5736207962036133,0
1.0770383834838866,0.5736207962036133,0
1.0524787902832031,0.5867019653320312,0
1.0677612304687500,0.5788810729980468,0
1.0677612304687500,0.5803722381591797,0
1.0638605117797850,0.5803722381591797,0
1.0694583892822265,0.5827068328857422,0
1.0576395034790038,0.5827068328857422,0
1.0638484954833984,0.5792346954345703,0
1.0616157531738282,0.5792346954345703,0
1.0695133209228516,0.5749975204467773,0
1.0631092071533204,0.5930465698242188,0
1.0631092071533204,0.5879550933837890,0
1.0689994812011718,0.5879550933837890,0
1.0638902664184571,0.5816740036010742,0
1.0650295257568358,0.5816740036010742,0
1.0707401275634765,0.5838209152221679,0
1.0588102340698242,0.5838209152221679,0
1.0651353836059569,0.5804878234863281,0
1.0628528594970703,0.5804878234863281,0
1.0708568572998047,0.5763971328735351,0
1.0803056716918944,0.5763971328735351,0
1.0737590789794922,0.5893495559692382,0
1.0553970336914062,0.5893495559692382,0
1.0653923034667969,0.5833196640014648,0
1.0767288208007812,0.5833196640014648,0
1.0722421646118163,0.5857526779174804,0
1.0605474472045897,0.5857526779174804,0
1.0669349670410155,0.5826913833618164,0
1.0643943786621093,0.5826913833618164,0
1.0728395462036133,0.5785205841064452,0
1.0823656082153319,0.5785205841064452,0
1.0757446289062500,0.5911943435668945,0
1.0572555541992188,0.5911943435668945,0
1.0669916152954102,0.5848360061645508,0
1.0780529022216796,0.5848360061645508,0
1.0732692718505858,0.5867202758789062,0
1.0615310668945312,0.5867202758789062,0
1.0677709579467773,0.5833013534545898,0
1.0650421142578124,0.5833013534545898,0
1.0735136032104491,0.5788644790649414,0
1.0828794479370116,0.5788644790649414,0
1.0759763717651367,0.5911725997924805,0
1.0572847366333007,0.5911725997924805,0
1.0668600082397461,0.5845870971679688,0
1.0778062820434571,0.5845870971679688,0
1.0730209350585938,0.5864393234252929,0
1.0613210678100586,0.5864393234252929,0
1.0676673889160155,0.5831748962402343,0
1.0648344039916993,0.5831748962402343,0
1.0736526489257812,0.5791351318359375,0
1.0831563949584961,0.5791351318359375,0
1.0763305664062499,0.5916074752807617,0
1.0578632354736328,0.5916074752807617,0
1.0674379348754883,0.5853773117065429,0
1.0784116744995116,0.5853773117065429,0
1.0737218856811523,0.5874423980712891,0
1.0623641967773436,0.5874423980712891,0
1.0688495635986328,0.5846466064453125,0
1.0660491943359374,0.5846466064453125,0
1.0752193450927734,0.5807470321655274,0
1.0849685668945312,0.5807470321655274,0
1.0781816482543944,0.5935157775878906,0
1.0597417831420899,0.5935157775878906,0
1.0691843032836914,0.5873937606811523,0
1.0801563262939453,0.5873937606811523,0
1.0754590988159178,0.5894948959350585,0
1.0643268585205077,0.5894948959350585,0
1.0707355499267577,0.5868015289306641,0
1.0678647994995116,0.5868015289306641,0
1.0771677017211914,0.5829626083374023,0
1.0698955535888672,0.5829626083374023,0
1.0799520492553711,0.5955665588378906,0
1.0615917205810546,0.5955665588378906,0
1.0708969116210938,0.5893873214721680,0
1.0816200256347657,0.5893873214721680,0
1.0769971847534179,0.5914793014526367,0
1.0661109924316405,0.5914793014526367,0
1.0724830627441406,0.5889095306396485,0
1.0695316314697265,0.5889095306396485,0
1.0790634155273438,0.5850431442260742,0
1.0889739990234375,0.5850431442260742,0
1.0819833755493165,0.5975475311279297,0
1.0635486602783202,0.5975475311279297,0
1.0726644515991210,0.5913002014160156,0
1.0832994461059571,0.5913002014160156,0
1.0787298202514648,0.5931455612182617,0
1.0679100036621094,0.5931455612182617,0
1.0741607666015625,0.5906719207763672,0
1.0710210800170898,0.5906719207763672,0
1.0808069229125976,0.5869239807128906,0
1.0908353805541993,0.5869239807128906,0
1.0835409164428711,0.5994083404541015,0
1.0651227951049804,0.5994083404541015,0
1.0738563537597656,0.5929767608642578,0
1.0844724655151368,0.5929767608642578,0
1.0797334671020506,0.5946928024291992,0
1.0692472457885742,0.5946928024291992,0
1.0753183364868164,0.5919330596923827,0
1.0719589233398437,0.5919330596923827,0
1.0813247680664062,0.5877101898193359,0
1.0911334991455077,0.5877101898193359,0
1.0835306167602539,0.5991056442260742,0
1.0645277023315429,0.5991056442260742,0
1.0724052429199218,0.5906833648681641,0
1.0819192886352538,0.5906833648681641,0
1.0755769729614257,0.5898971557617188,0
1.0645694732666016,0.5898971557617188,0
1.0692695617675780,0.5845098495483398,0
1.0646770477294922,0.5845098495483398,0
1.0730478286743164,0.5784027099609375,0
1.0820589065551758,0.5784027099609375,0
1.0744480133056640,0.5890291213989257,0
1.0552808761596679,0.5890291213989257,0
1.0631526947021483,0.5809352874755859,0
1.0729110717773438,0.5809352874755859,0
1.0673915863037109,0.5816734313964843,0
1.0576297760009765,0.5816734313964843,0
1.0761566162109375,0.5857841491699218,0
1.0586471557617188,0.5842271804809570,0
1.0617633819580077,0.5827783584594727,0
1.0715984344482421,0.5827783584594727,0
1.0664566040039063,0.5854877471923828,0
1.0699178695678710,0.5854877471923828,0
1.0612558364868163,0.5905048370361328,0
1.0502328872680664,0.5905048370361328,0
1.0573339462280273,0.5775209426879883,0
1.0763208389282226,0.5775209426879883,0
1.0692787170410156,0.5847913742065429,0
1.0595306396484374,0.5847913742065429,0
1.0624998092651368,0.5835777282714844,0
1.0723497390747070,0.5835777282714844,0
1.0671564102172850,0.5862648010253906,0
1.0708494186401367,0.5862648010253906,0
1.0618646621704102,0.5913179397583007,0
1.0507993698120117,0.5913179397583007,0
1.0580629348754882,0.5784513473510742,0
1.0771190643310546,0.5784513473510742,0
1.0702194213867187,0.5856897354125976,0
1.0605377197265624,0.5856897354125976,0
1.0635583877563477,0.5845870971679688,0
1.0731805801391601,0.5845870971679688,0
1.0682012557983398,0.5872089385986328,0
1.0719217300415038,0.5872089385986328,0
1.0627670288085938,0.5924022674560546,0
1.0518424987792969,0.5924022674560546,0
1.0594001770019530,0.5800140380859374,0
1.0784248352050780,0.5800140380859374,0
1.0717128753662108,0.5874343872070312,0
1.0621873855590820,0.5874343872070312,0
1.0650884628295898,0.5864376068115235,0
1.0746173858642578,0.5864376068115235,0
1.0697261810302734,0.5889879226684570,0
1.0734964370727538,0.5889879226684570,0
1.0641448974609375,0.5939992904663086,0
1.0530263900756835,0.5939992904663086,0
1.0606481552124023,0.5815189361572265,0
1.0795349121093749,0.5815189361572265,0
1.0726799011230468,0.5883951187133789,0
1.0630216598510742,0.5883951187133789,0
1.0657190322875976,0.5870613098144531,0
1.0749595642089844,0.5870613098144531,0
1.0698348999023437,0.5889490127563476,0
1.0735919952392579,0.5889490127563476,0
1.0640390396118165,0.5936834335327148,0
1.0527568817138671,0.5936834335327148,0
1.0603071212768553,0.5813049316406250,0
1.0790971755981444,0.5813049316406250,0
1.0726598739624023,0.5881153106689453,0
1.0631309509277342,0.5881153106689453,0
1.0656154632568360,0.5869148254394531,0
1.0748519897460938,0.5869148254394531,0
1.0699121475219726,0.5891212463378906,0
1.0737745285034179,0.5891212463378906,0
1.0641729354858398,0.5938917160034179,0
1.0530561447143554,0.5938917160034179,0
1.0608930587768555,0.5820711135864257,0
1.0798318862915040,0.5820711135864257,0
1.0734529495239258,0.5891115188598632,0
1.0641157150268554,0.5891115188598632,0
1.0667449951171875,0.5882337570190429,0
1.0758739471435546,0.5882337570190429,0
1.0711647033691405,0.5904441833496094,0
1.0752656936645508,0.5904441833496094,0
1.0654495239257813,0.5954475402832031,0
1.0544122695922851,0.5954475402832031,0
1.0623579025268555,0.5839462280273438,0
1.0811708450317383,0.5839462280273438,0
1.0752559661865233,0.5909717559814452,0
1.0660337448120116,0.5909717559814452,0
1.0684221267700196,0.5901586532592773,0
1.0775110244750976,0.5901586532592773,0
1.0728097915649413,0.5922649383544921,0
1.0768472671508789,0.5922649383544921,0
1.0671884536743164,0.5972110748291015,0
1.0561346054077148,0.5972110748291015,0
1.0641323089599608,0.5858596801757813,0
1.0829303741455079,0.5858596801757813,0
1.0770275115966796,0.5928800582885742,0
1.0678516387939452,0.5928800582885742,0
1.0701295852661132,0.5919445037841796,0
1.0790931701660156,0.5919445037841796,0
1.0743083953857422,0.5938150405883789,0
1.0785902023315430,0.5938150405883789,0
1.0686721801757812,0.5988195419311523,0
1.0575101852416993,0.5988195419311523,0
1.0656486511230467,0.5877119064331054,0
1.0843339920043944,0.5877119064331054,0
1.0788122177124022,0.5946355819702148,0
1.0695722579956055,0.5946355819702148,0
1.0717832565307617,0.5937858581542969,0
1.0806386947631836,0.5937858581542969,0
1.0758258819580078,0.5953462600708007,0
1.0800979614257813,0.5953462600708007,0
1.0698537826538086,0.6000434875488281,0
1.0584199905395508,0.6000434875488281,0
1.0663370132446288,0.5882801055908203,0
1.0844364166259766,0.5882801055908203,0
1.0783109664916992,0.5936210632324218,0
1.0682464599609374,0.5936210632324218,0
1.0692455291748046,0.5903017044067382,0
1.0766710281372069,0.5903017044067382,0
1.0707916259765624,0.5889661788940429,0
1.0739404678344726,0.5889661788940429,0
1.0625238418579102,0.5916109085083008,0
1.0504423141479491,0.5916109085083008,0
1.0577058792114258,0.5788518905639648,0
1.0756513595581054,0.5788518905639648,0
1.0695253372192381,0.5841218948364257,0
1.0598625183105468,0.5841218948364257,0
1.0614818572998046,0.5820768356323242,0
1.0696884155273436,0.5820768356323242,0
1.0647468566894531,0.5826725006103516,0
1.0688856124877930,0.5826725006103516,0
1.0583106994628906,0.5871826171875000,0
1.0654071807861327,0.5797937393188476,0
1.0624362945556640,0.5855770111083984,0
1.0590740203857421,0.5825529098510742,0
1.0693027496337890,0.5748361587524414,0
1.0716802597045898,0.5860633850097656,0
1.0647268295288086,0.5761425018310546,0
1.0585676193237303,0.5812477111816406,0
1.0579055786132812,0.5802120208740235,0
1.0555618286132813,0.5766483306884765,0
1.0688026428222657,0.5831600189208984,0
1.0697193145751953,0.5817764282226562,0
1.0721305847167968,0.5866544723510742,0
1.0651096343994140,0.5866544723510742,0
1.0588090896606446,0.5814874649047851,0
1.0477821350097656,0.5876638412475585,0
1.0743541717529297,0.5770454406738281,0
1.0632837295532227,0.5802297592163086,0
1.0701627731323242,0.5760435104370117,0
1.0618864059448241,0.5908041000366211,0
1.0655324935913086,0.5872238159179687,0
1.0700511932373047,0.5798274993896484,0
1.0595787048339844,0.5883018493652343,0
1.0565174102783204,0.5782922744750977,0
1.0642610549926756,0.5882200241088867,0
1.0713718414306641,0.5850048065185547,0
1.0713718414306641,0.5841653823852538,0
1.0739976882934570,0.5888854980468750,0
1.0621438980102538,0.5815572738647461,0
1.0609645843505859,0.5835971832275391,0
1.0579410552978514,0.5797903060913085,0
1.0656183242797852,0.5797903060913085,0
1.0624071121215819,0.5861326217651367,0
1.0639818191528321,0.5849847793579102,0
1.0747529983520507,0.5896104812622071,0
1.0625289916992187,0.5818227767944336,0
1.0612569808959960,0.5818227767944336,0
1.0580114364624023,0.5911382675170899,0
1.0763723373413085,0.5799339294433593,0
1.0624986648559569,0.5863014221191406,0
1.0724630355834961,0.5792100906372070,0
1.0751060485839843,0.5897638320922851,0
1.0721237182617187,0.5823297500610352,0
1.0618125915527343,0.5906021118164062,0
1.0587003707885743,0.5807865142822265,0
1.0665744781494140,0.5909339904785156,0
1.0734317779541016,0.5805004119873046,0
1.0762315750122069,0.5911331176757812,0
1.0688220977783203,0.5808191299438477,0
1.0629867553710937,0.5856828689575195,0
1.0521068572998047,0.5921768188476563,0
1.0786182403564453,0.5825380325317383,0
1.0680433273315428,0.5867116928100585,0
1.0750837326049805,0.5890239715576172,0
1.0857604980468749,0.5825231552124023,0
1.0600782394409178,0.5929967880249023,0
1.0703819274902344,0.5880054473876953,0
1.0647319793701171,0.5938350677490234,0
1.0726032257080078,0.5797788619995117,0
1.0696786880493163,0.5845321655273438,0
1.0696786880493163,0.5888723373413086,0
1.0766675949096680,0.5845041275024414,0
1.0687145233154296,0.5984893798828125,0
1.0719017028808593,0.5844200134277343,0
1.0769199371337890,0.5897214889526367,0
1.0553352355957031,0.5953336715698242,0
1.0740400314331053,0.5898153305053710,0
1.0711132049560546,0.5964208602905273,0
1.0664915084838866,0.5904670715332031,0
1.0887594223022461,0.5863477706909179,0
1.0701679229736327,0.5918249130249024,0
1.0732435226440429,0.5909294128417969,0
1.0681749343872069,0.6063703536987305,0
1.0745756149291992,0.5961416244506835,0
1.0745756149291992,0.5900974273681641,0
1.0700454711914062,0.5890554428100586,0
1.0749853134155274,0.5721342086791992,0
1.0657785415649415,0.5945022583007812,0
1.0723445892333985,0.5862979888916016,0
1.0709135055541992,0.5831806182861328,0
1.0608507156372069,0.5806955337524414,0
1.0666460037231444,0.5813409805297851,0
1.0551818847656249,0.5813409805297851,0
1.0681177139282225,0.5811532974243164,0
1.0681177139282225,0.5825792312622070,0
1.0605680465698242,0.5807069778442383,0
1.0709833145141601,0.5727882385253906,0
1.0580188751220703,0.5948781967163086,0
1.0669435501098632,0.5776079177856445,0
1.0574810028076171,0.5794984817504882,0
1.0539688110351562,0.5757139205932617,0
1.0675947189331054,0.5821031570434571,0
1.0683872222900390,0.5821031570434571,0
1.0711824417114257,0.5806308746337890,0
1.0711824417114257,0.5847633361816406,0
1.0582506179809570,0.5779752731323242,0
1.0577865600585936,0.5785377502441406,0
1.0541805267333983,0.5879384994506835,0
1.0722856521606445,0.5761396408081054,0
1.0592668533325196,0.5825798034667968,0
1.0686796188354493,0.5759645462036133,0
1.0714982986450194,0.5849899291992188,0
1.0634267807006836,0.5849899291992188,0
1.0674350738525391,0.5780668258666992,0
1.0579576492309570,0.5852142333984375,0
1.0542961120605467,0.5764514923095703,0
1.0623567581176758,0.5869720458984374,0
1.0692998886108398,0.5835765838623047,0
1.0804395675659180,0.5764789581298828,0
1.0543910980224609,0.5857944488525391,0
1.0645156860351561,0.5753459930419922,0
1.0594768524169922,0.5799596786499023,0
1.0484075546264648,0.5867900848388672,0
1.0753337860107421,0.5784221649169922,0
1.0647308349609375,0.5839096069335937,0
1.0720670700073243,0.5788787841796875,0
1.0642433166503906,0.5788787841796875,0
1.0678504943847655,0.5886199951171874,0
1.0678504943847655,0.5824258804321288,0
1.0625656127929688,0.5892379760742187,0
1.0706817626953125,0.5754175186157227,0
1.0672319412231446,0.5850975036621093,0
1.0622074127197265,0.5850975036621093,0
1.0855144500732421,0.5800746917724610,0
1.0656778335571289,0.5852119445800781,0
1.0683815002441406,0.5823858261108398,0
1.0627635955810546,0.6004680633544922,0
1.0712081909179687,0.5756795883178710,0
1.0712081909179687,0.5848285675048828,0
1.0673664093017579,0.5857429504394531,0
1.0738180160522461,0.5687696456909179,0
1.0659072875976563,0.5943180084228515,0
1.0733734130859374,0.5855443954467773,0
1.0628414154052734,0.5824367523193359,0
1.0628414154052734,0.5829122543334960,0
1.0716768264770506,0.5856004714965820,0
1.0589120864868165,0.5915296554565429,0
1.0786382675170898,0.5912487030029296,0
1.0653665542602540,0.5921539306640625,0
1.0697822570800781,0.5948896408081055,0
1.0697822570800781,0.5901563644409179,0
1.0895570755004882,0.5846117019653320,0
1.0687717437744140,0.5898468017578125,0
1.0720407485961914,0.5869359970092773,0
1.0661745071411133,0.5869359970092773,0
1.0551332473754882,0.5949600219726562,0
1.0756181716918944,0.5910089492797851,0
1.0713981628417968,0.5928983688354492,0
1.0783584594726563,0.5941120147705078,0
1.0701782226562500,0.6017898559570313,0
1.0735130310058594,0.5888620376586914,0
1.0675403594970703,0.6088136672973633,0
1.0561901092529296,0.5968254089355468,0
1.0846618652343749,0.5880798339843750,0
1.0728509902954102,0.6004571914672852,0
1.0799039840698241,0.5961765289306641,0
1.0693016052246094,0.5961765289306641,0
1.0718662261962890,0.5938699722290038,0
1.0803216934204101,0.5938699722290038,0
1.0753257751464844,0.5907119750976563,0
1.0816858291625977,0.5907119750976563,0
1.0703321456909178,0.5988115310668946,0
1.0582220077514648,0.5988115310668946,0
1.0656669616699219,0.5901975631713867,0
1.0869272232055665,0.5901975631713867,0
1.0822935104370117,0.5981151580810546,0
1.0717323303222657,0.5981151580810546,0
1.0740194320678711,0.5956335067749023,0
1.0825138092041016,0.5956335067749023,0
1.0774618148803710,0.5922369003295899,0
1.0837182998657227,0.5922369003295899,0
1.0723165512084960,0.6002077102661133,0
1.0599660873413086,0.6002077102661133,0
1.0675849914550781,0.5914661407470703,0
1.0887090682983398,0.5914661407470703,0
1.0840330123901367,0.5992973327636718,0
1.0734106063842772,0.5992973327636718,0
1.0755603790283204,0.5964757919311523,0
1.0840713500976562,0.5964757919311523,0
1.0788906097412110,0.5928812026977539,0
1.0852134704589844,0.5928812026977539,0
1.0738500595092773,0.6013074874877929,0
1.0614807128906250,0.6013074874877929,0
1.0690858840942383,0.5928869247436523,0
1.0895444869995117,0.5928869247436523,0
1.0858961105346678,0.6003055572509766,0
1.0763809204101562,0.6003055572509766,0
1.0782331466674804,0.5984802246093750,0
1.0855298995971678,0.5984802246093750,0
1.0807765960693358,0.5940427780151367,0
1.0872957229614257,0.5940427780151367,0
1.0770137786865235,0.6024284362792969,0
1.0651153564453124,0.6024284362792969,0
1.0713397979736328,0.5944484710693360,0
1.0913761138916016,0.5944484710693360,0
1.0875823974609375,0.6014030456542968,0
1.0781084060668944,0.6014030456542968,0
1.0794261932373046,0.5992321014404297,0
1.0866977691650390,0.5992321014404297,0
1.0817699432373047,0.5945440292358398,0
1.0882678985595702,0.5945440292358398,0
1.0777862548828125,0.6029239654541015,0
1.0657121658325195,0.6029239654541015,0
1.0717655181884764,0.5949783325195312,0
1.0918121337890625,0.5949783325195312,0
1.0879417419433592,0.6018098831176758,0
1.0783561706542968,0.6018098831176758,0
1.0798673629760742,0.5996772766113281,0
1.0873123168945311,0.5996772766113281,0
1.0823455810546874,0.5949033737182617,0
1.0890026092529297,0.5949033737182617,0
1.0787532806396485,0.6035499572753906,0
1.0665664672851562,0.6035499572753906,0
1.0728492736816406,0.5959236145019531,0
1.0930194854736328,0.5959236145019531,0
1.0893636703491210,0.6028181076049804,0
1.0795692443847655,0.6028181076049804,0
1.0808681488037108,0.6001379013061523,0
1.0877929687499999,0.6001379013061523,0
1.0826700210571290,0.5950424194335937,0
1.0891565322875976,0.5950424194335937,0
1.0787475585937500,0.6036695480346680,0
1.0664154052734374,0.6036695480346680,0
1.0725517272949219,0.5957571029663086,0
1.0926578521728516,0.5957571029663086,0
1.0889808654785156,0.6026596069335938,0
1.0795354843139648,0.6026596069335938,0
1.0808933258056641,0.6003541946411133,0
1.0882856369018554,0.6003541946411133,0
1.0827283859252930,0.5953239440917969,0
1.0892595291137694,0.5953239440917969,0
1.0789936065673829,0.6039957046508789,0
1.0669641494750977,0.6039957046508789,0
1.0733230590820313,0.5966091156005859,0
1.0933937072753905,0.5966091156005859,0
1.0897733688354492,0.6035556793212891,0
1.0802181243896485,0.6035556793212891,0
1.0815959930419921,0.6010248184204101,0
1.0887079238891602,0.6010248184204101,0
1.0837314605712891,0.5959756851196288,0
1.0902076721191405,0.5959756851196288,0
1.0797243118286133,0.6047813415527343,0
1.0673864364624024,0.6047813415527343,0
1.0731943130493165,0.5971876144409179,0
1.0929393768310547,0.5971876144409179,0
1.0889144897460936,0.6035430908203124,0
1.0790788650512695,0.6035430908203124,0
1.0799297332763671,0.6000320434570312,0
1.0864625930786131,0.6000320434570312,0
1.0805002212524413,0.5933229446411132,0
1.0859979629516601,0.5933229446411132,0
1.0743650436401366,0.5992120742797852,0
1.0604370117187500,0.5992120742797852,0
1.0646118164062499,0.5878858566284180,0
1.0825521469116210,0.5878858566284180,0
1.0770875930786132,0.5912075042724609,0
1.0662981033325194,0.5912075042724609,0
1.0661899566650390,0.5859334945678710,0
1.0723171234130859,0.5859334945678710,0
1.0665418624877929,0.5790533065795899,0
1.0724962234497071,0.5790533065795899,0
1.0615253448486328,0.5868736267089844,0
1.0487199783325194,0.5868736267089844,0
1.0544300079345703,0.5789194107055664,0
1.0742282867431641,0.5789194107055664,0
1.0702857971191406,0.5853675842285156,0
1.0605388641357421,0.5853675842285156,0
1.0616415023803711,0.5822931289672851,0
1.0687425613403321,0.5822931289672851,0
1.0634805679321289,0.5771501541137695,0
1.0700935363769530,0.5771501541137695,0
1.0593292236328125,0.5862350463867188,0
1.0465679168701172,0.5862350463867188,0
1.0525943756103515,0.5788753509521484,0
1.0730386734008788,0.5788753509521484,0
1.0689628601074219,0.5859312057495117,0
1.0586288452148438,0.5859312057495117,0
1.0597600936889648,0.5824899673461914,0
1.0673372268676757,0.5824899673461914,0
1.0620346069335938,0.5775690078735352,0
1.0686836242675781,0.5775690078735352,0
1.0571119308471679,0.5868965148925781,0
1.0438116073608399,0.5868965148925781,0
1.0503919601440430,0.5785852432250976,0
1.0717878341674805,0.5785852432250976,0
1.0665784835815428,0.5859638214111328,0
1.0551017761230468,0.5859638214111328,0
1.0562593460083007,0.5812608718872070,0
1.0643657684326171,0.5812608718872070,0
1.0581230163574218,0.5761304855346679,0
1.0643251419067383,0.5761304855346679,0
1.0518762588500976,0.5853836059570312,0
1.0376935958862303,0.5853836059570312,0
1.0445978164672851,0.5766637802124023,0
1.0664016723632812,0.5766637802124023,0
1.0609222412109374,0.5843587875366211,0
1.0493299484252929,0.5843587875366211,0
1.0504068374633788,0.5798063278198242,0
1.0588972091674804,0.5798063278198242,0
1.0529010772705079,0.5752223968505860,0
1.0596902847290040,0.5752223968505860,0
1.0476608276367188,0.5853401184082031,0
1.0337905883789062,0.5853401184082031,0
1.0412721633911133,0.5773160934448242,0
1.0639863967895506,0.5773160934448242,0
1.0590568542480467,0.5855054855346680,0
1.0477455139160157,0.5855054855346680,0
1.0494941711425780,0.5811367034912109,0
1.0583770751953125,0.5811367034912109,0
1.0531047821044921,0.5766637802124023,0
1.0602493286132812,0.5766637802124023,0
1.0484636306762696,0.5870046615600586,0
1.0347976684570312,0.5870046615600586,0
1.0423913955688475,0.5788398742675781,0
1.0652584075927733,0.5788398742675781,0
1.0603248596191406,0.5868558883666992,0
1.0491577148437499,0.5868558883666992,0
1.0512113571166992,0.5824373245239257,0
1.0602310180664063,0.5824373245239257,0
1.0552145004272460,0.5780765533447265,0
1.0628105163574217,0.5780765533447265,0
1.0511278152465819,0.5886091232299805,0
1.0376655578613281,0.5886091232299805,0
1.0457548141479491,0.5808259963989257,0
1.0691127777099609,0.5808259963989257,0
1.0644601821899413,0.5890743255615234,0
1.0534046173095704,0.5890743255615234,0
1.0555812835693359,0.5847330093383789,0
1.0649087905883790,0.5847330093383789,0
1.0600353240966796,0.5805524826049805,0
1.0680530548095704,0.5805524826049805,0
1.0565311431884765,0.5914999008178711,0
1.0432342529296874,0.5914999008178711,0
1.0514345169067383,0.5840183258056640,0
1.0748857498168944,0.5840183258056640,0
1.0701879501342773,0.5923530578613281,0
1.0590196609497069,0.5923530578613281,0
1.0612289428710937,0.5880105972290038,0
1.0703063964843749,0.5880105972290038,0
1.0652217864990234,0.5837596893310547,0
1.0728841781616210,0.5837596893310547,0
1.0613273620605468,0.5945589065551757,0
1.0477020263671875,0.5945589065551757,0
1.0558410644531249,0.5871213912963867,0
1.0792785644531249,0.5871213912963867,0
1.0745658874511719,0.5952369689941406,0
1.0635526657104493,0.5952369689941406,0
1.0659885406494141,0.5909940719604492,0
1.0753051757812500,0.5909940719604492,0
1.0707670211791991,0.5867162704467773,0
1.0786588668823243,0.5867162704467773,0
1.0671392440795897,0.5974388122558594,0
1.0538469314575194,0.5974388122558594,0
1.0615528106689454,0.5900899887084960,0
1.0728509902954102,0.5900899887084960,0
1.0791795730590821,0.5974617004394531,0
1.0677383422851563,0.5974617004394531,0
1.0692901611328125,0.5927267074584961,0
1.0777387619018555,0.5927267074584961,0
1.0727182388305663,0.5880466461181640,0
1.0665338516235352,0.5880466461181640,0
1.0683757781982421,0.5982942581176758,0
1.0548059463500976,0.5982942581176758,0
1.0620769500732421,0.5908578872680664,0
1.0846366882324219,0.5908578872680664,0
1.0684667587280272,0.5983840942382812,0
1.0785095214843750,0.5983840942382812,0
1.0704208374023436,0.5937189102172852,0
1.0788093566894530,0.5937189102172852,0
1.0740623474121094,0.5890508651733398,0
1.0814575195312499,0.5890508651733398,0
1.0700780868530273,0.5994958877563477,0
1.0567050933837889,0.5994958877563477,0
1.0642936706542969,0.5924411773681640,0
1.0868803024291991,0.5924411773681640,0
1.0820405960083008,0.5999118804931640,0
1.0711074829101561,0.5999118804931640,0
1.0730192184448242,0.5953456878662109,0
1.0813653945922852,0.5953456878662109,0
1.0767694473266600,0.5907955169677734,0
1.0841136932373046,0.5907955169677734,0
1.0727525711059569,0.6010797500610351,0
1.0594333648681640,0.6010797500610351,0
1.0665945053100585,0.5938682556152344,0
1.0890529632568360,0.5938682556152344,0
1.0840353012084960,0.6010894775390625,0
1.0729454040527344,0.6010894775390625,0
1.0748594284057618,0.5963871002197265,0
1.0830711364746093,0.5963871002197265,0
1.0784746170043944,0.5918128967285156,0
1.0856683731079102,0.5918128967285156,0
1.0742511749267578,0.6020090103149414,0
1.0611047744750977,0.6020090103149414,0
1.0682144165039062,0.5951471328735352,0
1.0904382705688476,0.5951471328735352,0
1.0855985641479491,0.6022573471069336,0
1.0747020721435547,0.6022573471069336,0
1.0766223907470702,0.5975807189941406,0
1.0847162246704101,0.5975807189941406,0
1.0803508758544922,0.5928955078125000,0
1.0876556396484374,0.5928955078125000,0
1.0763511657714844,0.6032300949096679,0
1.0634101867675780,0.6032300949096679,0
1.0704963684082032,0.5964363098144531,0
1.0925611495971679,0.5964363098144531,0
1.0876201629638671,0.6033994674682617,0
1.0765216827392579,0.6033994674682617,0
1.0784568786621094,0.5985797882080078,0
1.0860351562499999,0.5985797882080078,0
1.0816583633422852,0.5938522338867187,0
1.0888555526733399,0.5938522338867187,0
1.0774166107177734,0.6039825439453125,0
1.0644224166870118,0.6039825439453125,0
1.0713529586791992,0.5970382690429688,0
1.0931499481201172,0.5970382690429688,0
1.0883852005004881,0.6039522171020507,0
1.0772855758666993,0.6039522171020507,0
1.0794519424438476,0.5993734359741211,0
1.0872156143188476,0.5993734359741211,0
1.0830059051513672,0.5945371627807617,0
1.0903959274291992,0.5945371627807617,0
1.0791200637817382,0.6050966262817382,0
1.0663839340209960,0.6050966262817382,0
1.0848844528198243,0.6101806640624999,0
1.0848844528198243,0.6082895278930663,0
1.0892269134521484,0.5989454269409179,0
1.1033523559570313,0.5989454269409179,0
1.0949724197387696,0.6054462432861328,0
1.0737281799316405,0.6054462432861328,0
1.0785604476928710,0.5997230529785156,0
1.0885528564453124,0.5997230529785156,0
1.0870616912841797,0.6025583267211914,0
1.0783475875854491,0.6025583267211914,0
1.0833972930908202,0.6046806335449219,0
1.0757715225219726,0.6046806335449219,0
1.0849027633666992,0.5925178527832031,0
1.0975919723510741,0.5925178527832031,0
1.0879932403564452,0.5956552505493163,0
1.0666900634765624,0.5956552505493163,0
1.0699287414550780,0.5890331268310547,0
1.0781038284301758,0.5890331268310547,0
1.0770606994628906,0.5908361434936523,0
1.0693902969360352,0.5908361434936523,0
1.0740932464599608,0.5937229156494140,0
1.0669475555419921,0.5937229156494140,0
1.0768896102905272,0.5843044281005859,0
1.0898946762084960,0.5843044281005859,0
1.0818105697631835,0.5899320602416992,0
1.0621479034423829,0.5899320602416992,0
1.0658826828002930,0.5855924606323242,0
1.0747507095336915,0.5855924606323242,0
1.0745201110839844,0.5889083862304687,0
1.0614154815673829,0.5889083862304687,0
1.0724475860595704,0.5928955078125000,0
1.0656303405761718,0.5928955078125000,0
1.0757789611816406,0.5841104507446289,0
1.0890861511230467,0.5841104507446289,0
1.0813407897949219,0.5898902893066406,0
1.0618795394897460,0.5898902893066406,0
1.0657190322875976,0.5859500885009765,0
1.0745767593383788,0.5859500885009765,0
1.0744709014892577,0.5892683029174804,0
1.0673212051391601,0.5892683029174804,0
1.0723686218261719,0.5935649871826172,0
1.0655199050903319,0.5935649871826172,0
1.0759563446044922,0.5845424652099609,0
1.0889379501342773,0.5845424652099609,0
1.0812681198120118,0.5904418945312500,0
1.0604747772216796,0.5904418945312500,0
1.0652240753173827,0.5854236602783203,0
1.0750802993774413,0.5854236602783203,0
1.0739336013793945,0.5892059326171875,0
1.0659965515136718,0.5892059326171875,0
1.0713592529296874,0.5940250396728516,0
1.0646335601806640,0.5940250396728516,0
1.0754882812500000,0.5844285964965820,0
1.0892658233642578,0.5844285964965820,0
1.0807811737060546,0.5910060882568359,0
1.0599174499511719,0.5910060882568359,0
1.0648693084716796,0.5862642288208008,0
1.0747747421264648,0.5862642288208008,0
1.0738317489624023,0.5900945663452148,0
1.0659599304199219,0.5900945663452148,0
1.0714685440063476,0.5949634552001953,0
1.0647657394409180,0.5949634552001953,0
1.0756078720092772,0.5855152130126953,0
1.0891004562377928,0.5855152130126953,0
1.0806341171264648,0.5919290542602539,0
1.0599454879760741,0.5919290542602539,0
1.0649036407470702,0.5873159408569336,0
1.0747621536254883,0.5873159408569336,0
1.0738592147827148,0.5912006378173827,0
1.0663576126098633,0.5912006378173827,0
1.0717557907104491,0.5960546493530273,0
1.0651290893554688,0.5960546493530273,0
1.0758069992065429,0.5863162994384765,0
1.0892045974731446,0.5863162994384765,0
1.0809848785400391,0.5922700881958007,0
1.0610235214233399,0.5922700881958007,0
1.0655405044555664,0.5878778457641601,0
1.0748559951782226,0.5878778457641601,0
1.0740692138671875,0.5916612625122070,0
1.0668262481689452,0.5916612625122070,0
1.0720779418945312,0.5964099884033203,0
1.0654312133789061,0.5964099884033203,0
1.0759649276733398,0.5870183944702149,0
1.0892944335937500,0.5870183944702149,0
1.0812520980834961,0.5929098129272461,0
1.0617633819580077,0.5929098129272461,0
1.0662666320800780,0.5888351440429688,0
1.0752788543701171,0.5888351440429688,0
1.0746746063232422,0.5927804946899414,0
1.0678539276123047,0.5927804946899414,0
1.0731050491333007,0.5977197647094726,0
1.0665990829467773,0.5977197647094726,0
1.0773033142089843,0.5885736465454101,0
1.0904794692993163,0.5885736465454101,0
1.0826986312866211,0.5945365905761718,0
1.0634330749511718,0.5945365905761718,0
1.0680187225341797,0.5907440185546875,0
1.0768386840820312,0.5907440185546875,0
1.0763122558593750,0.5948873519897461,0
1.0694778442382813,0.5948873519897461,0
1.0747077941894532,0.5995376586914062,0
1.0681079864501952,0.5995376586914062,0
1.0786239624023437,0.5904029846191406,0
1.0916639328002928,0.5904029846191406,0
1.0839563369750975,0.5961919784545898,0
1.0646850585937500,0.5961919784545898,0
1.0690681457519531,0.5924205780029297,0
1.0778989791870117,0.5924205780029297,0
1.0773262023925780,0.5966056823730469,0
1.0706148147583008,0.5966056823730469,0
1.0759042739868163,0.6012107849121093,0
1.0694990158081055,0.6012107849121093,0
1.0800945281982421,0.5922237396240234,0
1.0932998657226562,0.5922237396240234,0
1.0854652404785157,0.5980075836181641,0
1.0663696289062499,0.5980075836181641,0
1.0707796096801758,0.5942070007324218,0
1.0796241760253906,0.5942070007324218,0
1.0790714263916015,0.5983863830566406,0
1.0723331451416016,0.5983863830566406,0
1.0776460647583008,0.6026916503906250,0
1.0711492538452148,0.6026916503906250,0
1.0815393447875976,0.5938442230224609,0
1.0946268081665038,0.5938442230224609,0
1.0869077682495116,0.5993980407714844,0
1.0677978515625000,0.5993980407714844,0
1.0720825195312500,0.5955596923828125,0
1.0809488296508789,0.5955596923828125,0
1.0803262710571289,0.5997528076171875,0
1.0735239028930663,0.5997528076171875,0
1.0787435531616210,0.6037261962890624,0
1.0721889495849608,0.6037261962890624,0
1.0826196670532227,0.5948759078979492,0
1.0954833984374999,0.5948759078979492,0
1.0877197265625000,0.6004085540771484,0
1.0688261032104491,0.6004085540771484,0
1.0729534149169921,0.5965862274169922,0
1.0817321777343749,0.5965862274169922,0
1.0809682846069335,0.6007575988769531,0
1.0741802215576171,0.6007575988769531,0
1.0796350479125976,0.6047224044799805,0
1.0732652664184570,0.6047224044799805,0
1.0835163116455078,0.5958858489990234,0
1.0964109420776367,0.5958858489990234,0
1.0888481140136719,0.6014659881591796,0
1.0698743820190428,0.6014659881591796,0
1.0742036819458007,0.5976951599121093,0
1.0829498291015625,0.5976951599121093,0
1.0823564529418945,0.6020353317260742,0
1.0755489349365235,0.6020353317260742,0
1.0809923171997069,0.6057220458984375,0
1.0744892120361327,0.6057220458984375,0
1.0847923278808593,0.5969547271728516,0
1.0975158691406250,0.5969547271728516,0
1.0900497436523438,0.6024438858032226,0
1.0711807250976562,0.6024438858032226,0
1.0753852844238281,0.5987697601318359,0
1.0839992523193358,0.5987697601318359,0
1.0832759857177734,0.6028512954711914,0
1.0708946228027343,0.6134840011596679,0
1.0862966537475585,0.5881645202636718,0
1.0977945327758789,0.5975406646728515,0
1.0784219741821288,0.5983280181884766,0
1.0804601669311522,0.5947277069091796,0
1.0770217895507812,0.5954755783081055,0
1.0651737213134764,0.6037988662719727,0
1.0709695816040039,0.5980230331420898,0
1.0863584518432616,0.6027442932128906,0
1.0850790023803711,0.5979600906372070,0
1.0907781600952149,0.6034624099731445,0
1.0806049346923827,0.5945314407348633,0
1.0774721145629882,0.5961502075195312,0
1.0656103134155273,0.6043041229248046,0
1.0822494506835938,0.5987674713134765,0
1.0822494506835938,0.6075016021728515,0
1.0980205535888672,0.5985088348388672,0
1.0790679931640625,0.5989459991455078,0
1.0804939270019531,0.5939506530761719,0
1.0832496643066405,0.5982919692993164,0
1.0762933731079101,0.6018619537353516,0
1.0860494613647460,0.5934688568115234,0
1.0772987365722655,0.6006460189819336,0
1.0771699905395506,0.5967401504516602,0
1.0752948760986327,0.5880809783935547,0
1.0809946060180664,0.5918306350708008,0
1.0644121170043945,0.5863878250122070,0
1.0657464981079101,0.5819744110107422,0
1.0583805084228515,0.5835531234741210,0
1.0686876296997070,0.5835531234741210,0
1.0709615707397460,0.5908218383789062,0
1.0835283279418946,0.5826719284057617,0
1.0579439163208006,0.5877668380737304,0
1.0667856216430665,0.5796804428100586,0
1.0636007308959960,0.5798131942749023,0
1.0579444885253906,0.5900699615478515,0
1.0773954391479492,0.5790493011474609,0
1.0637060165405272,0.5875059127807617,0
1.0705856323242187,0.5826622009277344,0
1.0772203445434569,0.5881399154663086,0
1.0670602798461915,0.5797342300415039,0
1.0648813247680664,0.5890045166015625,0
1.0703023910522460,0.5890045166015625,0
1.0688455581665040,0.5913516998291015,0
1.0624488830566405,0.5916315078735351,0
1.0833932876586914,0.5830095291137695,0
1.0659610748291015,0.5834478378295899,0
1.0674161911010742,0.5798715591430664,0
1.0740680694580078,0.5804769515991210,0
1.0653585433959960,0.5886709213256835,0
1.0588142395019531,0.5835428237915039,0
1.0692295074462890,0.5912664413452148,0
1.0714977264404297,0.5914031982421875,0
1.0840066909790038,0.5834466934204101,0
1.0607070922851562,0.5887567520141601,0
1.0684959411621093,0.5814863204956054,0
1.0670969009399414,0.5903640747070312,0
1.0565643310546875,0.5903640747070312,0
1.0795915603637696,0.5858076095581054,0
1.0716064453125000,0.5939346313476562,0
1.0741149902343750,0.5861864089965820,0
1.0694766998291014,0.5960895538330078,0
1.0713970184326171,0.5839736938476562,0
1.0781124114990235,0.5844360351562500,0
1.0699287414550780,0.5929601669311523,0
1.0632848739624023,0.5878492355346679,0
1.0734998703002929,0.5952026367187500,0
1.0754945755004883,0.5950967788696289,0
1.0875881195068360,0.5872621536254883,0
1.0641998291015624,0.5918409347534179,0
1.0718639373779297,0.5843822479248046,0
1.0699201583862303,0.5842260360717774,0
1.0629404067993165,0.5934488296508789,0
1.0629404067993165,0.5868679046630859,0
1.0771282196044922,0.5904098510742187,0
1.0750001907348632,0.5863386154174804,0
1.0807771682739258,0.5909688949584960,0
1.0668525695800781,0.6014659881591796,0
1.0749246597290039,0.5880477905273437,0
1.0685937881469727,0.5933921813964843,0
1.0629976272583008,0.5870183944702149,0
1.0773490905761718,0.5909957885742188,0
1.0747341156005858,0.5946304321289062,0
1.0814146041870116,0.5766168594360351,0
1.0814146041870116,0.5918884277343750,0
1.0758253097534178,0.5890274047851562,0
1.0705759048461914,0.5949337005615234,0
1.0643955230712889,0.6052831649780274,0
1.0790016174316406,0.5803813934326172,0
1.0706565856933594,0.5928451538085937,0
1.0776712417602539,0.5891561508178711,0
1.0834539413452149,0.5941274642944335,0
1.0701948165893553,0.5916967391967773,0
1.0731840133666992,0.5877840042114257,0
1.0670476913452147,0.6079519271850585,0
1.0848478317260741,0.5912847518920898,0
1.0815336227416992,0.5954641342163086,0
1.0788299560546875,0.5992040634155273,0
1.0854761123657226,0.5812345504760742,0
1.0685228347778319,0.5965507507324218,0
1.0803079605102539,0.5939952850341796,0
1.0751358032226561,0.5983423233032227,0
1.0786188125610352,0.6019214630126953,0
1.0759563446044922,0.5933120727539062,0
1.0761978149414062,0.5993036270141602,0
1.0697261810302734,0.5940937042236328,0
1.0792482376098633,0.6019580841064452,0
1.0808023452758788,0.6013664245605469,0
1.0930212020874024,0.5934116363525390,0
1.0872980117797850,0.5983846664428710,0
1.0779012680053710,0.5898319244384765,0
1.0768495559692381,0.5912521362304687,0
1.0654363632202148,0.5996858596801757,0
1.0879131317138671,0.5946372985839844,0
1.0800973892211914,0.6032260894775391,0
1.0818906784057616,0.5942888259887695,0
1.0775167465209960,0.5942888259887695,0
1.0792808532714844,0.5996538162231445,0
1.0792808532714844,0.5914077758789062,0
1.0785804748535155,0.6014579772949219,0
1.0832170486450194,0.5930677413940429,0
1.0821796417236327,0.6049558639526367,0
1.0759941101074217,0.6057500839233398,0
1.0963600158691407,0.5969581604003906,0
1.0797855377197265,0.5970869064331055,0
1.0814071655273436,0.5937658309936523,0
1.0772769927978516,0.6122955322265625,0
1.0850372314453125,0.6035877227783203,0
1.0850372314453125,0.6051996231079101,0
1.0835563659667968,0.6073928833007812,0
1.0880155563354492,0.5903411865234375,0
1.0806369781494141,0.6074438095092773,0
1.0852071762084960,0.5979600906372070,0
1.0877986907958983,0.5937950134277343,0
1.0770761489868164,0.5989603042602539,0
1.0832479476928711,0.6024753570556640,0
1.0713146209716797,0.6024753570556640,0
1.0712556838989258,0.6014957427978516,0
1.0820005416870118,0.5947425842285156,0
1.0716602325439453,0.5873302459716797,0
1.0807788848876954,0.5753814697265625,0
1.0654993057250977,0.5987205505371094,0
1.0727428436279296,0.5861474990844726,0
1.0659021377563476,0.5903800964355469,0
1.0603168487548829,0.5832464218139648,0
1.0731657028198243,0.5863105773925781,0
1.0655124664306641,0.5909357070922852,0
1.0757160186767578,0.5778923034667969,0
1.0624483108520508,0.5959533691406250,0
1.0700592041015624,0.5875087738037109,0
1.0700592041015624,0.5892488479614257,0
1.0688524246215820,0.5908779144287110,0
1.0733179092407226,0.5870590209960938,0
1.0652687072753906,0.5870590209960938,0
1.0667804718017577,0.5832040786743163,0
1.0715744018554687,0.5832040786743163,0
1.0686927795410155,0.5803041458129883,0
1.0755134582519530,0.5803041458129883,0
1.0678911209106445,0.5910644531250000,0
1.0568572998046875,0.5910644531250000,0
1.0628929138183594,0.5869668960571289,0
1.0801437377929688,0.5869668960571289,0
1.0771167755126954,0.5913648605346680,0
1.0688472747802733,0.5913648605346680,0
1.0703653335571288,0.5874172210693359,0
1.0749567031860352,0.5874172210693359,0
1.0717586517333983,0.5838369369506836,0
1.0784259796142577,0.5838369369506836,0
1.0703144073486328,0.5935770034790039,0
1.0588405609130860,0.5935770034790039,0
1.0644361495971679,0.5880140304565430,0
1.0810741424560546,0.5880140304565430,0
1.0771362304687500,0.5910226821899414,0
1.0683139801025390,0.5910226821899414,0
1.0691648483276366,0.5856290817260742,0
1.0732624053955078,0.5856290817260742,0
1.0698686599731444,0.5811086654663086,0
1.0760221481323242,0.5811086654663086,0
1.0677097320556641,0.5906044006347656,0
1.0559165954589844,0.5906044006347656,0
1.0616346359252928,0.5850242614746094,0
1.0783275604248046,0.5850242614746094,0
1.0747129440307617,0.5884374618530274,0
1.0658998489379883,0.5884374618530274,0
1.0669733047485350,0.5835302352905273,0
1.0714067459106444,0.5835302352905273,0
1.0680765151977538,0.5795734405517577,0
1.0744411468505859,0.5795734405517577,0
1.0663587570190429,0.5896671295166015,0
1.0546405792236329,0.5896671295166015,0
1.0607625961303710,0.5845888137817382,0
1.0777954101562499,0.5845888137817382,0
1.0742145538330077,0.5884311676025390,0
1.0656211853027344,0.5884311676025390,0
1.0670036315917968,0.5839204788208008,0
1.0716058731079101,0.5839204788208008,0
1.0683408737182616,0.5802669525146484,0
1.0750133514404296,0.5802669525146484,0
1.0669303894042967,0.5907028198242187,0
1.0553730010986329,0.5907028198242187,0
1.0615991592407226,0.5860971450805664,0
1.0786731719970704,0.5860971450805664,0
1.0752244949340819,0.5903577804565430,0
1.0668130874633788,0.5903577804565430,0
1.0683546066284180,0.5863037109375000,0
1.0732332229614256,0.5863037109375000,0
1.0702754974365234,0.5833637237548828,0
1.0774028778076172,0.5833637237548828,0
1.0696031570434570,0.5945446014404296,0
1.0581441879272460,0.5945446014404296,0
1.0648756027221680,0.5904739379882812,0
1.0824754714965821,0.5904739379882812,0
1.0791778564453125,0.5950035095214844,0
1.0707704544067382,0.5950035095214844,0
1.0723331451416016,0.5909025192260742,0
1.0771814346313475,0.5909025192260742,0
1.0740228652954100,0.5874000549316406,0
1.0806798934936523,0.5874000549316406,0
1.0725763320922852,0.5978473663330078,0
1.0609663009643555,0.5978473663330078,0
1.0673978805541993,0.5929721832275391,0
1.0846092224121093,0.5929721832275391,0
1.0808853149414062,0.5968494415283203,0
1.0724475860595704,0.5968494415283203,0
1.0737854003906249,0.5922414779663085,0
1.0784660339355467,0.5922414779663085,0
1.0753000259399415,0.5886154174804688,0
1.0819816589355469,0.5886154174804688,0
1.0738924026489258,0.5987983703613281,0
1.0622915267944335,0.5987983703613281,0
1.0686996459960938,0.5937658309936523,0
1.0859722137451171,0.5937658309936523,0
1.0823392868041992,0.5976659774780273,0
1.0739015579223632,0.5976659774780273,0
1.0752136230468750,0.5929578781127930,0
1.0800230026245117,0.5929578781127930,0
1.0766807556152342,0.5891973495483398,0
1.0834207534790039,0.5891973495483398,0
1.0751918792724608,0.5993207931518555,0
1.0635320663452148,0.5993207931518555,0
1.0703086853027344,0.5945377349853516,0
1.0878215789794921,0.5945377349853516,0
1.0842327117919921,0.5985048294067382,0
1.0758796691894530,0.5985048294067382,0
1.0773296356201172,0.5935071945190430,0
1.0822031021118164,0.5935071945190430,0
1.0789781570434569,0.5895652770996094,0
1.0857301712036131,0.5895652770996094,0
1.0770801544189452,0.5991926193237305,0
1.0651645660400391,0.5991926193237305,0
1.0714302062988281,0.5935958862304688,0
1.0881528854370117,0.5935958862304688,0
1.0843328475952148,0.5969186782836914,0
1.0756599426269531,0.5969186782836914,0
1.0770200729370116,0.5919353485107421,0
1.0814220428466796,0.5919353485107421,0
1.0783704757690429,0.5884311676025390,0
1.0850160598754883,0.5884311676025390,0
1.0768661499023438,0.5984493255615234,0
1.0653339385986327,0.5984493255615234,0
1.0718719482421875,0.5939678192138672,0
1.0888412475585938,0.5939678192138672,0
1.0854612350463866,0.5981363296508789,0
1.0771574020385741,0.5981363296508789,0
1.0788248062133790,0.5939712524414062,0
1.0835700988769530,0.5939712524414062,0
1.0806341171264648,0.5910850524902344,0
1.0768959045410156,0.5910850524902344,0
1.0795177459716796,0.6013956069946289,0
1.0682470321655273,0.6013956069946289,0
1.0749052047729493,0.5969404220581055,0
1.0915391921997071,0.5969404220581055,0
1.0880252838134765,0.6006546020507812,0
1.0799028396606445,0.6006546020507812,0
1.0810941696166991,0.5960838317871093,0
1.0854898452758788,0.5960838317871093,0
1.0822397232055663,0.5922397613525391,0
1.0885494232177735,0.5922397613525391,0
1.0802661895751953,0.6013612747192383,0
1.0686264038085938,0.6013612747192383,0
1.0824148178100585,0.6026521682739258,0
1.0824148178100585,0.6041318893432617,0
1.0832811355590819,0.5925355911254883,0
1.0942800521850586,0.5925355911254883,0
1.0866416931152343,0.5954641342163086,0
1.0696523666381836,0.5954641342163086,0
1.0722118377685546,0.5913482666015625,0
1.0797712326049804,0.5913482666015625,0
1.0785261154174803,0.5957965850830078,0
1.0737150192260743,0.5957965850830078,0
1.0765943527221680,0.5982610702514648,0
1.0698898315429688,0.5982610702514648,0
1.0784883499145508,0.5876958847045898,0
1.0900245666503905,0.5876958847045898,0
1.0831409454345702,0.5921865463256836,0
1.0666271209716796,0.5921865463256836,0
1.0698652267456055,0.5892889022827148,0
1.0779012680053710,0.5892889022827148,0
1.0771556854248046,0.5946527481079101,0
1.0729631423950194,0.5946527481079101,0
1.0759792327880859,0.5979022979736328,0
1.0696477890014648,0.5979022979736328,0
1.0783830642700194,0.5880214691162109,0
1.0904188156127930,0.5880214691162109,0
1.0838150024414062,0.5929121017456055,0
1.0675998687744139,0.5929121017456055,0
1.0708133697509765,0.5903257369995117,0
1.0787984848022460,0.5903257369995117,0
1.0782234191894531,0.5957651138305664,0
1.0738019943237305,0.5957651138305664,0
1.0769348144531250,0.5987211227416992,0
1.0704992294311524,0.5987211227416992,0
1.0791555404663085,0.5887556076049805,0
1.0909481048583984,0.5887556076049805,0
1.0842218399047852,0.5934328079223633,0
1.0678962707519530,0.5934328079223633,0
1.0710462570190429,0.5907382965087891,0
1.0789461135864258,0.5907382965087891,0
1.0783687591552733,0.5962423324584961,0
1.0737344741821289,0.5962423324584961,0
1.0768180847167967,0.5992658615112304,0
1.0702045440673829,0.5992658615112304,0
1.0788539886474608,0.5888895034790039,0
1.0907535552978516,0.5888895034790039,0
1.0838762283325194,0.5934356689453125,0
1.0671089172363282,0.5934356689453125,0
1.0699230194091796,0.5901540756225586,0
1.0778125762939452,0.5901540756225586,0
1.0769548416137695,0.5953273773193359,0
1.0721649169921874,0.5953273773193359,0
1.0751140594482422,0.5980665206909179,0
1.0684364318847657,0.5980665206909179,0
1.0771030426025390,0.5877084732055664,0
1.0888132095336913,0.5877084732055664,0
1.0820869445800780,0.5923393249511718,0
1.0652257919311523,0.5923393249511718,0
1.0681400299072266,0.5893730163574219,0
1.0762596130371094,0.5893730163574219,0
1.0756147384643555,0.5948329925537109,0
1.0710256576538086,0.5948329925537109,0
1.0741550445556640,0.5979675292968750,0
1.0676021575927734,0.5979675292968750,0
1.0765388488769532,0.5880146026611328,0
1.0884658813476562,0.5880146026611328,0
1.0817928314208984,0.5927907943725585,0
1.0652223587036131,0.5927907943725585,0
1.0682115554809570,0.5902038574218750,0
1.0764667510986328,0.5902038574218750,0
1.0758138656616210,0.5958595275878906,0
1.0714164733886717,0.5958595275878906,0
1.0747215270996093,0.5992790222167969,0
1.0682413101196289,0.5992790222167969,0
1.0772935867309570,0.5895692825317382,0
1.0892732620239258,0.5895692825317382,0
1.0829383850097656,0.5945657730102539,0
1.0662528991699218,0.5945657730102539,0
1.0692478179931639,0.5918157577514648,0
1.0716167449951171,0.5918157577514648,0
1.0770755767822264,0.5974313735961914,0
1.0725214004516601,0.5974313735961914,0
1.0758178710937500,0.6008228302001953,0
1.0692380905151366,0.6008228302001953,0
1.0730546951293944,0.5909442901611328,0
1.0730546951293944,0.6004096984863281,0
1.0840141296386718,0.5958137512207031,0
1.0672130584716797,0.5958137512207031,0
1.0702800750732422,0.5930139541625976,0
1.0784105300903319,0.5930139541625976,0
1.0777925491333007,0.5985099792480468,0
1.0733453750610351,0.5985099792480468,0
1.0765686035156250,0.6018098831176758,0
1.0700551986694335,0.6018098831176758,0
1.0790399551391601,0.5918266296386718,0
1.0911100387573243,0.5918266296386718,0
1.0848037719726562,0.5966777801513672,0
1.0679901123046875,0.5966777801513672,0
1.0710525512695312,0.5938299179077148,0
1.0793300628662108,0.5938299179077148,0
1.0787527084350585,0.5993917465209960,0
1.0742855072021484,0.5993917465209960,0
1.0775344848632813,0.6025806427001953,0
1.0817224502563476,0.5852548599243164,0
1.0736377716064454,0.5928405761718750,0
1.0746917724609375,0.6022590637207031,0
1.0746917724609375,0.5926351547241211,0
1.0761852264404297,0.5888168334960937,0
1.0825801849365233,0.5888168334960937,0
1.0741407394409179,0.5985729217529296,0
1.0627361297607421,0.5985729217529296,0
1.0694961547851562,0.5941389083862304,0
1.0862337112426756,0.5941389083862304,0
1.0823627471923827,0.5981483459472656,0
1.0743129730224610,0.5981483459472656,0
1.0754276275634764,0.5937927246093749,0
1.0803497314453125,0.5937927246093749,0
1.0768827438354491,0.5900808334350586,0
1.0833131790161132,0.5900808334350586,0
1.0748228073120116,0.5997322082519531,0
1.0633701324462890,0.5997322082519531,0
1.0698549270629882,0.5943077087402343,0
1.0860803604125977,0.5943077087402343,0
1.0815198898315430,0.5967063903808594,0
1.0724510192871093,0.5967063903808594,0
1.0727382659912108,0.5902502059936523,0
1.0767379760742186,0.5902502059936523,0
1.0723033905029296,0.5842964172363281,0
1.0778240203857421,0.5842964172363281,0
1.0686527252197264,0.5923633575439453,0
1.0566690444946290,0.5923633575439453,0
1.0628717422485352,0.5863414764404297,0
1.0790960311889648,0.5863414764404297,0
1.0746414184570312,0.5890903472900391,0
1.0661178588867186,0.5890903472900391,0
1.0670282363891601,0.5839324951171875,0
1.0717586517333983,0.5839324951171875,0
1.0679620742797851,0.5795156478881835,0
1.0742145538330077,0.5795156478881835,0
1.0658672332763672,0.5888723373413086,0
1.0545495986938476,0.5888723373413086,0
1.0613639831542969,0.5841676712036132,0
1.0780666351318360,0.5841676712036132,0
1.0741539001464844,0.5881095886230469,0
1.0663799285888671,0.5881095886230469,0
1.0676633834838867,0.5838232040405273,0
1.0728126525878905,0.5838232040405273,0
1.0693656921386718,0.5799699783325195,0
1.0756788253784180,0.5799699783325195,0
1.0676994323730469,0.5898370742797852,0
1.0568407058715821,0.5898370742797852,0
1.0635292053222656,0.5855249404907227,0
1.0800098419189452,0.5855249404907227,0
1.0762235641479492,0.5894542694091797,0
1.0684238433837889,0.5894542694091797,0
1.0697422027587891,0.5853807449340820,0
1.0748857498168944,0.5853807449340820,0
1.0712923049926757,0.5816448211669921,0
1.0774171829223633,0.5816448211669921,0
1.0694532394409180,0.5913722991943359,0
1.0586248397827147,0.5913722991943359,0
1.0653276443481445,0.5871173858642578,0
1.0816892623901366,0.5871173858642578,0
1.0779487609863281,0.5911737442016601,0
1.0702051162719726,0.5911737442016601,0
1.0714897155761718,0.5871585845947266,0
1.0766075134277344,0.5871585845947266,0
1.0731840133666992,0.5836647033691406,0
1.0793529510498046,0.5836647033691406,0
1.0715772628784179,0.5935432434082031,0
1.0609886169433593,0.5935432434082031,0
1.0677108764648438,0.5897083282470703,0
1.0841880798339842,0.5897083282470703,0
1.0804773330688475,0.5940988540649413,0
1.0728933334350585,0.5940988540649413,0
1.0742746353149413,0.5903160095214843,0
1.0794553756713867,0.5903160095214843,0
1.0759637832641602,0.5867031097412109,0
1.0820932388305664,0.5867031097412109,0
1.0744525909423828,0.5962028503417969,0
1.0637088775634764,0.5962028503417969,0
1.0700185775756836,0.5921115875244141,0
1.0862125396728515,0.5921115875244141,0
1.0823827743530272,0.5959190368652344,0
1.0745435714721678,0.5959190368652344,0
1.0756319046020508,0.5917247772216797,0
1.0807188034057618,0.5917247772216797,0
1.0770938873291016,0.5876804351806640,0
1.0829343795776367,0.5876804351806640,0
1.0749973297119140,0.5965873718261718,0
1.0640310287475585,0.5965873718261718,0
1.0703029632568359,0.5925670623779297,0
1.0864768981933592,0.5925670623779297,0
1.0823701858520507,0.5963212966918945,0
1.0744411468505859,0.5963212966918945,0
1.0756759643554688,0.5919513702392578,0
1.0806638717651367,0.5919513702392578,0
1.0768930435180664,0.5877285003662109,0
1.0828022003173827,0.5877285003662109,0
1.0749435424804688,0.5968294143676758,0
1.0639635086059569,0.5968294143676758,0
1.0702114105224609,0.5932331085205078,0
1.0866073608398437,0.5932331085205078,0
1.0826889038085936,0.5971446990966797,0
1.0748456954956054,0.5971446990966797,0
1.0760845184326171,0.5931747436523437,0
1.0811662673950195,0.5931747436523437,0
1.0775110244750976,0.5889450073242187,0
1.0834396362304688,0.5889450073242187,0
1.0756748199462891,0.5982444763183593,0
1.0648418426513671,0.5982444763183593,0
1.0713918685913086,0.5947494506835938,0
1.0877540588378907,0.5947494506835938,0
1.0836759567260741,0.5987440109252929,0
1.0758893966674805,0.5987440109252929,0
1.0773593902587890,0.5949342727661132,0
1.0826637268066406,0.5949342727661132,0
1.0789810180664061,0.5906673431396484,0
1.0849107742309569,0.5906673431396484,0
1.0770606994628906,0.6000017166137696,0
1.0662723541259764,0.6000017166137696,0
1.0726673126220703,0.5964042663574218,0
1.0891765594482421,0.5964042663574218,0
1.0850589752197266,0.6003713607788086,0
1.0769811630249022,0.6003713607788086,0
1.0787521362304686,0.5965164184570312,0
1.0838939666748046,0.5965164184570312,0
1.0804183959960938,0.5921642303466796,0
1.0865489959716796,0.5921642303466796,0
1.0786582946777343,0.6018899917602539,0
1.0675884246826171,0.6018899917602539,0
1.0740806579589843,0.5982152938842773,0
1.0908325195312500,0.5982152938842773,0
1.0868608474731445,0.6021720886230468,0
1.0787006378173827,0.6021720886230468,0
1.0804578781127929,0.5983566284179688,0
1.0856340408325196,0.5983566284179688,0
1.0819284439086914,0.5936880111694336,0
1.0879228591918946,0.5936880111694336,0
1.0798633575439454,0.6030378341674805,0
1.0685194015502930,0.6030378341674805,0
1.0746145248413086,0.5982896804809570,0
1.0907838821411133,0.5982896804809570,0
1.0859676361083983,0.6007387161254882,0
1.0767648696899415,0.6007387161254882,0
1.0777610778808593,0.5947134017944335,0
1.0817436218261718,0.5947134017944335,0
1.0769279479980469,0.5875585556030273,0
1.0818248748779296,0.5875585556030273,0
1.0727165222167969,0.5948421478271484,0
1.0605783462524414,0.5948421478271484,0
1.0662277221679688,0.5891607284545898,0
1.0821098327636718,0.5891607284545898,0
1.0773525238037109,0.5915794372558594,0
1.0684335708618165,0.5915794372558594,0
1.0697204589843750,0.5865217208862304,0
1.0745149612426756,0.5865217208862304,0
1.0703796386718749,0.5810869216918945,0
1.0761772155761717,0.5810869216918945,0
1.0679981231689453,0.5902404785156250,0
1.0568607330322266,0.5902404785156250,0
1.0629981994628905,0.5860771179199219,0
1.0796138763427734,0.5860771179199219,0
1.0754596710205078,0.5898313522338867,0
1.0672302246093750,0.5898313522338867,0
1.0689136505126953,0.5859603881835938,0
1.0741401672363280,0.5859603881835938,0
1.0703195571899413,0.5813192367553711,0
1.0765085220336914,0.5813192367553711,0
1.0685674667358398,0.5909471511840820,0
1.0574575424194335,0.5909471511840820,0
1.0636035919189453,0.5870023727416992,0
1.0803909301757812,0.5870023727416992,0
1.0762281417846680,0.5910301208496094,0
1.0679935455322265,0.5910301208496094,0
1.0697793960571289,0.5872209548950195,0
1.0751512527465821,0.5872209548950195,0
1.0714462280273438,0.5826719284057617,0
1.0776042938232422,0.5826719284057617,0
1.0695636749267579,0.5924846649169921,0
1.0586191177368163,0.5924846649169921,0
1.0650724411010741,0.5886508941650390,0
1.0818672180175781,0.5886508941650390,0
1.0777610778808593,0.5929115295410156,0
1.0696929931640624,0.5929115295410156,0
1.0716808319091797,0.5894371032714844,0
1.0770967483520508,0.5894371032714844,0
1.0734346389770508,0.5850889205932617,0
1.0798925399780273,0.5850889205932617,0
1.0718765258789062,0.5951957702636719,0
1.0775470733642578,0.5951957702636719,0
1.0674711227416991,0.5915451049804688,0
1.0842344284057617,0.5915451049804688,0
1.0802822113037109,0.5958360671997071,0
1.0721740722656250,0.5958360671997071,0
1.0739387512207030,0.5920864105224609,0
1.0794261932373046,0.5920864105224609,0
1.0754825592041015,0.5874635696411132,0
1.0817150115966796,0.5874635696411132,0
1.0626708984375000,0.5972391128540039,0
1.0790811538696288,0.5998821258544922,0
1.0777376174926758,0.6019826889038086,0
1.0814781188964844,0.5848989486694336,0
1.0748416900634765,0.5931118011474609,0
1.0855842590332030,0.5833900451660156,0
1.0822076797485352,0.5880260467529297,0
1.0741241455078125,0.5977586746215821,0
1.0794376373291015,0.5892768859863281,0
1.0778921127319336,0.6021720886230468,0
1.0816274642944335,0.6021720886230468,0
1.0749881744384766,0.6027505874633788,0
1.0803577423095703,0.5933692932128906,0
1.0825881958007812,0.5885015487670898,0
1.0720149993896484,0.5947282791137695,0
1.0797552108764648,0.6007341384887696,0
1.0692209243774413,0.6106052398681641,0
1.0820280075073241,0.5857589721679687,0
1.0806604385375975,0.5979938507080078,0
1.0809688568115234,0.5942928314208984,0
1.0771453857421875,0.5895343780517578,0
1.0727640151977538,0.6081361770629883,0
1.0807125091552734,0.6019271850585938,0
1.0703350067138671,0.6019271850585938,0
1.0832628250122069,0.5872072219848633,0
1.0751832962036132,0.5995010375976563,0
1.0769233703613281,0.5957565307617188,0
1.0785890579223631,0.5910890579223632,0
1.0741916656494139,0.6097211837768555,0
1.0822465896606446,0.6035963058471679,0
1.0718999862670897,0.6035963058471679,0
1.0847442626953125,0.5888374328613281,0
1.0766332626342774,0.6012359619140625,0
1.0785633087158202,0.5975532531738281,0
1.0800653457641600,0.5927959442138672,0
1.0757497787475585,0.5927959442138672,0
1.0838224411010742,0.6052185058593750,0
1.0786725997924804,0.6052185058593750,0
1.0860843658447266,0.6069894790649414,0
1.0860843658447266,0.6022384643554687,0
1.0837646484374999,0.5978147506713867,0
1.0895771026611327,0.6022304534912110,0
1.0741064071655273,0.6088966369628906,0
1.0797317504882813,0.5993288040161132,0
1.0797317504882813,0.5999776840209960,0
1.0760089874267578,0.5996057510375976,0
1.0789764404296875,0.5939655303955078,0
1.0703722000122069,0.5975418090820312,0
1.0704580307006835,0.5922574996948242,0
1.0704580307006835,0.5820522308349609,0
1.0674121856689454,0.5911869049072266,0
1.0724470138549804,0.5821495056152344,0
1.0704757690429687,0.5938493728637695,0
1.0638610839843750,0.5941040039062500,0
1.0844821929931641,0.5856925964355468,0
1.0673475265502930,0.5853595733642578,0
1.0688146591186523,0.5804803848266601,0
1.0644699096679686,0.5804803848266601,0
1.0558073043823242,0.5905426025390624,0
1.0722106933593749,0.5919679641723633,0
1.0707578659057617,0.5945434570312500,0
1.0750185012817381,0.5774951934814453,0
1.0680427551269531,0.5954469680786133,0
1.0735639572143554,0.5861045837402343,0
1.0759792327880859,0.5814725875854492,0
1.0655204772949218,0.5875860214233398,0
1.0731657028198243,0.5930156707763672,0
1.0680679321289062,0.5930156707763672,0
1.0654060363769531,0.5958801269531250,0
1.0761280059814453,0.5912996292114258,0
1.0691448211669921,0.5875894546508789,0
1.0805786132812500,0.5771730422973632,0
1.0668514251708985,0.6017343521118164,0
1.0668514251708985,0.5893329620361328,0
1.0747667312622069,0.5949954986572266,0
1.0641099929809570,0.6047235488891601,0
1.0768295288085936,0.5900178909301758,0
1.0792722702026367,0.6039218902587891,0
1.0656801223754881,0.6063577651977539,0
1.0793243408203124,0.5993534088134765,0
1.0793243408203124,0.5948266983032227,0
1.0719903945922851,0.5907852172851562,0
1.0831432342529297,0.5948787689208984,0
1.0693090438842774,0.5918266296386718,0
1.0711566925048828,0.5918266296386718,0
1.0657928466796875,0.5968809127807617,0
1.0657928466796875,0.5905563354492187,0
1.0794147491455077,0.5948472976684570,0
1.0779916763305664,0.5985620498657226,0
1.0833784103393553,0.5804431915283202,0
1.0663290023803711,0.5951248168945312,0
1.0777393341064452,0.5922248840332031,0
1.0715818405151367,0.5962480545043946,0
1.0663238525390624,0.5913333892822266,0
1.0755266189575194,0.5913333892822266,0
1.0788042068481445,0.5958709716796875,0
1.0788042068481445,0.5922128677368164,0
1.0842430114746093,0.5964941024780274,0
1.0747072219848632,0.5880283355712891,0
1.0727748870849609,0.5899732589721679,0
1.0617324829101562,0.5978096008300781,0
1.0845577239990234,0.5929716110229492,0
1.0768615722656250,0.6019443511962891,0
1.0800848007202148,0.5940296173095703,0
1.0743799209594727,0.5940296173095703,0
1.0762687683105467,0.5983737945556641,0
1.0762687683105467,0.5898696899414062,0
1.0742803573608397,0.5997585296630860,0
1.0798290252685547,0.5911577224731445,0
1.0786485671997070,0.6039293289184570,0
1.0724344253540039,0.6039796829223633,0
1.0932603836059569,0.5959630966186523,0
1.0761451721191406,0.5961227416992188,0
1.0843620300292969,0.5917013168334960,0
1.0760816574096679,0.6015993118286133,0
1.0814661026000976,0.5929956436157227,0
1.0800601959228515,0.6056848526000976,0
1.0739427566528319,0.6056402206420898,0
1.0940237045288086,0.5970846176147461,0
1.0768959045410156,0.5967853546142577,0
1.0773359298706053,0.5904922485351562,0
1.0723417282104493,0.5904922485351562,0
1.0771974563598632,0.5875007629394531,0
1.0707029342651366,0.5974966049194336,0
1.0662031173706055,0.5977672576904297,0
1.0771528244018553,0.5924388885498046,0
1.0679288864135741,0.5870212554931641,0
1.0784906387329101,0.5870212554931641,0
1.0741258621215819,0.5808454513549804,0
1.0638753890991210,0.5860147476196289,0
1.0704128265380859,0.5903886795043946,0
1.0593309402465820,0.5995496749877930,0
1.0732440948486328,0.5752178192138672,0
1.0651960372924805,0.5881010055541992,0
1.0712505340576171,0.5842540740966796,0
1.0768363952636719,0.5882125854492187,0
1.0631195068359374,0.5849103927612305,0
1.0648921966552733,0.5849103927612305,0
1.0648561477661131,0.5899229049682617,0
1.0595048904418944,0.5838890075683594,0
1.0737716674804687,0.5884981155395508,0
1.0720716476440428,0.5920944213867188,0
1.0773582458496094,0.5743949890136718,0
1.0773582458496094,0.5887939453125000,0
1.0638685226440430,0.5856348037719726,0
1.0655857086181639,0.5819864273071289,0
1.0601474761962890,0.5847564697265625,0
1.0695928573608398,0.5936525344848632,0
1.0727657318115233,0.5927896499633789,0
1.0838218688964842,0.5853435516357421,0
1.0685165405273438,0.5809072494506836,0
1.0747907638549805,0.5808677673339844,0
1.0662448883056641,0.5902513504028321,0
1.0609010696411132,0.5856250762939453,0
1.0702726364135742,0.5856250762939453,0
1.0752044677734374,0.5902639389038086,0
1.0673458099365234,0.5902639389038086,0
1.0676078796386719,0.5869634628295898,0
1.0735582351684569,0.5869634628295898,0
1.0695053100585936,0.5824356079101562,0
1.0760015487670898,0.5824356079101562,0
1.0676290512084960,0.5918838500976562,0
1.0564847946166991,0.5918838500976562,0
1.0621759414672851,0.5873668670654296,0
1.0792739868164063,0.5873668670654296,0
1.0763711929321289,0.5918558120727538,0
1.0685571670532226,0.5918558120727538,0
1.0687459945678710,0.5884683609008788,0
1.0746854782104491,0.5884683609008788,0
1.0706394195556641,0.5835479736328125,0
1.0767745971679688,0.5835479736328125,0
1.0681766510009765,0.5927341461181640,0
1.0569786071777343,0.5927341461181640,0
1.0625049591064453,0.5878555297851562,0
1.0796659469604493,0.5878555297851562,0
1.0765800476074219,0.5921997070312500,0
1.0686733245849609,0.5921997070312500,0
1.0687568664550782,0.5886302947998047,0
1.0801391601562500,0.5886302947998047,0
1.0705890655517578,0.5836996078491211,0
1.0768026351928710,0.5836996078491211,0
1.0682121276855467,0.5927776336669922,0
1.0571096420288086,0.5927776336669922,0
1.0625541687011719,0.5881628036499024,0
1.0796676635742186,0.5881628036499024,0
1.0768941879272460,0.5926168441772460,0
1.0689365386962890,0.5926168441772460,0
1.0693038940429687,0.5892339706420898,0
1.0751100540161131,0.5892339706420898,0
1.0711772918701172,0.5845670700073242,0
1.0774972915649415,0.5845670700073242,0
1.0688713073730469,0.5938110351562500,0
1.0579593658447266,0.5938110351562500,0
1.0635898590087891,0.5894102096557617,0
1.0807754516601562,0.5894102096557617,0
1.0779396057128905,0.5940977096557617,0
1.0701416015625000,0.5940977096557617,0
1.0705633163452148,0.5909820556640625,0
1.0766841888427734,0.5909820556640625,0
1.0727148056030273,0.5863271713256836,0
1.0789941787719726,0.5863271713256836,0
1.0705467224121092,0.5956615447998047,0
1.0595907211303710,0.5956615447998047,0
1.0652223587036131,0.5914724349975585,0
1.0825349807739257,0.5914724349975585,0
1.0799795150756835,0.5961650848388672,0
1.0720693588256835,0.5961650848388672,0
1.0724779129028319,0.5931970596313476,0
1.0787504196166993,0.5931970596313476,0
1.0747329711914062,0.5886531829833984,0
1.0808475494384766,0.5886531829833984,0
1.0724430084228516,0.5978553771972656,0
1.0614383697509766,0.5978553771972656,0
1.0670001983642579,0.5934247970581055,0
1.0842000961303710,0.5934247970581055,0
1.0813631057739257,0.5976053237915039,0
1.0731176376342773,0.5976053237915039,0
1.0730438232421875,0.5933961868286133,0
1.0782777786254882,0.5933961868286133,0
1.0734512329101562,0.5869314193725585,0
1.0785083770751953,0.5869314193725585,0
1.0689010620117188,0.5938316345214844,0
1.0568120956420899,0.5938316345214844,0
1.0612203598022460,0.5872718811035156,0
1.0775310516357421,0.5872718811035156,0
1.0740262985229492,0.5898605346679687,0
1.0652818679809570,0.5898605346679687,0
1.0649717330932618,0.5852491378784179,0
1.0704162597656250,0.5852491378784179,0
1.0656909942626953,0.5794246673583984,0
1.0714673995971680,0.5794246673583984,0
1.0625633239746093,0.5875310897827148,0
1.0512811660766601,0.5875310897827148,0
1.0564928054809570,0.5826147079467773,0
1.0736503601074219,0.5826147079467773,0
1.0708230972290038,0.5867128372192383,0
1.0627813339233398,0.5867128372192383,0
1.0630805969238282,0.5831846237182617,0
1.0691602706909180,0.5831846237182617,0
1.0648881912231445,0.5783082962036132,0
1.0711206436157226,0.5783082962036132,0
1.0622045516967773,0.5871385574340821,0
1.0511501312255860,0.5871385574340821,0
1.0566329956054688,0.5824705123901367,0
1.0740451812744141,0.5824705123901367,0
1.0711360931396483,0.5868804931640624,0
1.0631401062011718,0.5868804931640624,0
1.0633718490600585,0.5835296630859375,0
1.0695796966552733,0.5835296630859375,0
1.0653488159179687,0.5786539077758789,0
1.0714376449584961,0.5786539077758789,0
1.0627195358276367,0.5874074935913086,0
1.0515781402587889,0.5882789611816406,0
1.0569820404052734,0.5910827636718750,0
1.0715995788574217,0.5873022079467773,0
1.0639846801757813,0.5842140197753906,0
1.0723606109619139,0.5794097900390625,0
1.0620065689086913,0.5844440460205078,0
1.0692655563354492,0.5893712997436523,0
1.0620883941650390,0.5925041198730469,0
1.0729648590087890,0.5848331451416016,0
1.0656177520751953,0.5859712600708008,0
1.0637815475463868,0.5815315246582031,0
1.0718175888061523,0.5903852462768554,0
1.0652658462524414,0.5913036346435546,0
1.0636928558349610,0.5942241668701171,0
1.0746145248413086,0.5960277557373047,0
1.0732618331909178,0.5875476837158203,0
1.0785358428955079,0.5874893188476562,0
1.0664508819580079,0.5841808319091797,0
1.0608707427978514,0.6014282226562500,0
1.0753543853759766,0.5910335540771484,0
1.0740526199340821,0.5880123138427734,0
1.0790691375732422,0.5919582366943359,0
1.0653482437133788,0.5878778457641601,0
1.0612546920776367,0.6017646789550781,0
1.0787115097045898,0.5873777389526367,0
1.0854475021362304,0.5877204895019531,0
1.0702817916870118,0.5839027404785156,0
1.0702817916870118,0.5842254638671874,0
1.0678133010864257,0.5930316925048827,0
1.0569145202636718,0.5930316925048827,0
1.0621501922607421,0.5888196945190429,0
1.0795463562011718,0.5888196945190429,0
1.0768135070800782,0.5931747436523437,0
1.0691019058227538,0.5931747436523437,0
1.0694938659667967,0.5905311584472656,0
1.0757812499999999,0.5905311584472656,0
1.0715263366699219,0.5859992980957031,0
1.0777908325195311,0.5859992980957031,0
1.0691190719604491,0.5945938110351562,0
1.0583450317382812,0.5945938110351562,0
1.0635400772094725,0.5904813766479492,0
1.0810638427734374,0.5904813766479492,0
1.0783962249755858,0.5950120925903321,0
1.0706274032592773,0.5950120925903321,0
1.0711034774780273,0.5923341751098633,0
1.0775224685668945,0.5923341751098633,0
1.0732944488525391,0.5877164840698242,0
1.0792848587036132,0.5877164840698242,0
1.0706434249877930,0.5965593338012695,0
1.0764947891235350,0.5965593338012695,0
1.0652652740478514,0.5923353195190429,0
1.0827672958374024,0.5923353195190429,0
1.0798461914062500,0.5965684890747071,0
1.0718313217163085,0.5965684890747071,0
1.0722455978393555,0.5935014724731446,0
1.0780923843383790,0.5935014724731446,0
1.0733362197875975,0.5877050399780274,0
1.0787429809570312,0.5877050399780274,0
1.0693159103393555,0.5946058273315430,0
1.0576189041137696,0.5946058273315430,0
1.0620569229125976,0.5883132934570312,0
1.0785507202148437,0.5883132934570312,0
1.0748205184936523,0.5908252716064453,0
1.0660760879516602,0.5908252716064453,0
1.0658020019531249,0.5864444732666015,0
1.0713020324707030,0.5864444732666015,0
1.0664972305297851,0.5803825378417968,0
1.0721746444702147,0.5803825378417968,0
1.0628288269042969,0.5878778457641601,0
1.0516090393066406,0.5878778457641601,0
1.0564584732055664,0.5826221466064453,0
1.0737562179565430,0.5826221466064453,0
1.0705587387084960,0.5822650909423828,0
1.0630920410156250,0.5918684005737305,0
1.0649745941162110,0.5784502029418945,0
1.0708116531372069,0.5784502029418945,0
1.0618944168090820,0.5868833541870117,0
1.0510379791259765,0.5868833541870117,0
1.0562301635742186,0.5822702407836914,0
1.0656600952148436,0.5913059234619140,0
1.0656600952148436,0.5865623474121093,0
1.0697542190551756,0.5865623474121093,0
1.0635080337524414,0.5838626861572266,0
1.0697216033935546,0.5838626861572266,0
1.0712459564208985,0.5789817810058594,0
1.0607173919677735,0.5789817810058594,0
1.0623384475708006,0.5873668670654296,0
1.0514825820922851,0.5873668670654296,0
1.0566135406494139,0.5824710845947265,0
1.0740812301635743,0.5824710845947265,0
1.0633289337158203,0.5870092391967773,0
1.0703470230102539,0.5870092391967773,0
1.0639217376708985,0.5844057083129882,0
1.0700529098510743,0.5844057083129882,0
1.0657167434692383,0.5795688629150391,0
1.0716951370239258,0.5795688629150391,0
1.0627521514892577,0.5880168914794922,0
1.0520730972290038,0.5880168914794922,0
1.0572675704956054,0.5834569931030273,0
1.0747993469238282,0.5834569931030273,0
1.0719697952270508,0.5881645202636718,0
1.0641534805297852,0.5881645202636718,0
1.0648681640625000,0.5856908798217774,0
1.0711824417114257,0.5856908798217774,0
1.0667982101440430,0.5811750411987304,0
1.0729333877563476,0.5811750411987304,0
1.0639291763305663,0.5895772933959961,0
1.0532587051391602,0.5895772933959961,0
1.0585041046142578,0.5848915100097656,0
1.0760353088378907,0.5848915100097656,0
1.0731491088867187,0.5896356582641601,0
1.0652441024780273,0.5896356582641601,0
1.0660577774047850,0.5870676040649414,0
1.0724063873291014,0.5870676040649414,0
1.0678339004516602,0.5822782516479492,0
1.0738786697387694,0.5822782516479492,0
1.0646965026855468,0.5905454635620117,0
1.0539522171020508,0.5905454635620117,0
1.0589567184448241,0.5852720260620117,0
1.0764879226684569,0.5852720260620117,0
1.0734455108642578,0.5898113250732422,0
1.0654752731323243,0.5898113250732422,0
1.0661584854125976,0.5872959136962891,0
1.0724424362182616,0.5872959136962891,0
1.0676565170288086,0.5822673797607422,0
1.0737802505493164,0.5822673797607422,0
1.0645093917846680,0.5904859542846680,0
1.0538045883178710,0.5904859542846680,0
1.0590145111083984,0.5853315353393554,0
1.0765285491943359,0.5853315353393554,0
1.0734718322753907,0.5900430679321289,0
1.0656560897827148,0.5900430679321289,0
1.0664113998413085,0.5876569747924805,0
1.0728343963623046,0.5876569747924805,0
1.0681577682495116,0.5829729080200196,0
1.0741973876953124,0.5829729080200196,0
1.0650747299194336,0.5913505554199219,0
1.0544111251831054,0.5913505554199219,0
1.0596462249755858,0.5863048553466796,0
1.0774068832397461,0.5863048553466796,0
1.0745407104492186,0.5914266586303710,0
1.0665109634399415,0.5914266586303710,0
1.0673566818237303,0.5890268325805664,0
1.0739295959472657,0.5890268325805664,0
1.0694366455078124,0.5844955444335938,0
1.0756988525390625,0.5844955444335938,0
1.0663341522216796,0.5931049346923828,0
1.0556081771850585,0.5931049346923828,0
1.0610904693603516,0.5877456665039062,0
1.0791126251220702,0.5877456665039062,0
1.0758876800537109,0.5932193756103515,0
1.0675998687744139,0.5932193756103515,0
1.0687980651855469,0.5902576446533203,0
1.0756181716918944,0.5902576446533203,0
1.0709764480590820,0.5860485076904297,0
1.0769811630249022,0.5860485076904297,0
1.0671592712402342,0.5945531845092773,0
1.0561403274536132,0.5945531845092773,0
1.0620780944824217,0.5887081146240234,0
1.0804573059082030,0.5887081146240234,0
1.0767614364624023,0.5943185806274414,0
1.0683191299438477,0.5943185806274414,0
1.0764827728271484,0.5913127899169922,0
1.0810255050659179,0.5913127899169922,0
1.0716665267944336,0.5871746063232421,0
1.0781061172485351,0.5871746063232421,0
1.0680690765380858,0.5954177856445312,0
1.0570472717285155,0.5954177856445312,0
1.0627538681030273,0.5899692535400390,0
1.0806278228759765,0.5899692535400390,0
1.0776203155517579,0.5952135086059570,0
1.0696214675903319,0.5952135086059570,0
1.0704202651977539,0.5925458908081055,0
1.0767431259155273,0.5925458908081055,0
1.0718605041503906,0.5872461318969726,0
1.0775053024291992,0.5872461318969726,0
1.0672616958618164,0.5942447662353515,0
1.0557655334472655,0.5942447662353515,0
1.0605743408203125,0.5870515823364257,0
1.0775236129760741,0.5870515823364257,0
1.0737865447998047,0.5904356002807617,0
1.0646867752075195,0.5904356002807617,0
1.0650518417358399,0.5862533569335937,0
1.0710714340209961,0.5862533569335937,0
1.0657333374023437,0.5803590774536133,0
1.0715040206909179,0.5803590774536133,0
1.0609725952148437,0.5875946044921875,0
1.0496406555175781,0.5875946044921875,0
1.0551549911499023,0.5809043884277344,0
1.0730701446533202,0.5809043884277344,0
1.0696437835693360,0.5857440948486328,0
1.0612152099609375,0.5857440948486328,0
1.0620065689086913,0.5829654693603515,0
1.0684524536132811,0.5829654693603515,0
1.0636653900146484,0.5780359268188476,0
1.0698074340820312,0.5780359268188476,0
1.0599466323852538,0.5861457824707031,0
1.0492029190063477,0.5861457824707031,0
1.0547779083251954,0.5802841186523438,0
1.0724184036254882,0.5802841186523438,0
1.0694446563720703,0.5855970382690430,0
1.0612941741943358,0.5855970382690430,0
1.0621953964233397,0.5831445693969727,0
1.0686281204223633,0.5831445693969727,0
1.0637781143188476,0.5782482147216796,0
1.0697771072387694,0.5782482147216796,0
1.0601577758789062,0.5863683700561523,0
1.0493036270141600,0.5863683700561523,0
1.0550262451171875,0.5804203033447265,0
1.0726358413696289,0.5804203033447265,0
1.0694852828979491,0.5857847213745117,0
1.0614435195922851,0.5857847213745117,0
1.0622898101806639,0.5833436965942382,0
1.0688690185546874,0.5833436965942382,0
1.0642032623291016,0.5785903930664062,0
1.0703413009643554,0.5785903930664062,0
1.0601034164428711,0.5870607376098632,0
1.0491519927978514,0.5870607376098632,0
1.0553529739379883,0.5808414459228516,0
1.0737075805664062,0.5808414459228516,0
1.0702074050903321,0.5868370056152343,0
1.0616912841796875,0.5868370056152343,0
1.0627750396728515,0.5842872619628906,0
1.0696403503417968,0.5842872619628906,0
1.0648258209228516,0.5798355102539062,0
1.0711263656616210,0.5798355102539062,0
1.0612060546875000,0.5883573532104492,0
1.0504308700561522,0.5883573532104492,0
1.0562210083007812,0.5822364807128906,0
1.0740045547485351,0.5822364807128906,0
1.0710783004760742,0.5879241943359375,0
1.0629449844360350,0.5879241943359375,0
1.0638261795043944,0.5855936050415039,0
1.0704734802246094,0.5855936050415039,0
1.0654804229736328,0.5810319900512695,0
1.0717649459838867,0.5810319900512695,0
1.0616289138793944,0.5891286849975585,0
1.0506689071655273,0.5891286849975585,0
1.0567880630493163,0.5826250076293945,0
1.0746637344360350,0.5826250076293945,0
1.0714857101440429,0.5883361816406250,0
1.0630966186523436,0.5883361816406250,0
1.0639720916748046,0.5856657028198242,0
1.0707647323608398,0.5856657028198242,0
1.0657104492187499,0.5811286926269531,0
1.0717557907104491,0.5811286926269531,0
1.0614961624145507,0.5892974853515625,0
1.0503524780273437,0.5892974853515625,0
1.0564601898193360,0.5826072692871094,0
1.0744606018066405,0.5826072692871094,0
1.0711509704589843,0.5884529113769531,0
1.0627355575561523,0.5884529113769531,0
1.0637060165405272,0.5856840133666992,0
1.0705312728881835,0.5856840133666992,0
1.0655536651611328,0.5815481185913086,0
1.0717678070068359,0.5815481185913086,0
1.0615476608276366,0.5898239135742187,0
1.0506900787353515,0.5898239135742187,0
1.0566799163818359,0.5831823348999023,0
1.0748720169067383,0.5831823348999023,0
1.0716224670410155,0.5895292282104492,0
1.0632070541381835,0.5895292282104492,0
1.0642868041992186,0.5868404388427734,0
1.0716167449951171,0.5868404388427734,0
1.0665899276733397,0.5830919265747070,0
1.0728109359741211,0.5830919265747070,0
1.0625461578369140,0.5913173675537109,0
1.0514207839965819,0.5913173675537109,0
1.0578186035156250,0.5846609115600586,0
1.0763368606567383,0.5846609115600586,0
1.0727640151977538,0.5910902023315430,0
1.0727382659912108,0.5910902023315430,0
1.0653299331665038,0.5883676528930664,0
1.0726758956909179,0.5883676528930664,0
1.0676382064819336,0.5845436096191406,0
1.0737138748168944,0.5845436096191406,0
1.0634536743164062,0.5925218582153320,0
1.0524204254150391,0.5925218582153320,0
1.0585670471191406,0.5857709884643555,0
1.0765972137451172,0.5857709884643555,0
1.0735330581665039,0.5920372009277344,0
1.0652120590209961,0.5920372009277344,0
1.0663518905639648,0.5897071838378906,0
1.0730781555175781,0.5897071838378906,0
1.0683408737182616,0.5853715896606445,0
1.0744457244873047,0.5853715896606445,0
1.0642971038818358,0.5934928894042969,0
1.0535711288452148,0.5934928894042969,0
1.0596010208129882,0.5868518829345702,0
1.0775608062744140,0.5868518829345702,0
1.0744588851928711,0.5931209564208985,0
1.0662878036499024,0.5931209564208985,0
1.0673475265502930,0.5907989501953125,0
1.0740915298461913,0.5907989501953125,0
1.0693422317504881,0.5866201400756835,0
1.0754344940185547,0.5866201400756835,0
1.0656097412109375,0.5947299957275390,0
1.0549278259277344,0.5947299957275390,0
1.0607814788818359,0.5880352020263672,0
1.0785844802856446,0.5880352020263672,0
1.0755266189575194,0.5942567825317383,0
1.0674842834472655,0.5942567825317383,0
1.0684072494506835,0.5920463562011719,0
1.0751392364501953,0.5920463562011719,0
1.0704912185668944,0.5879608154296875,0
1.0765113830566406,0.5879608154296875,0
1.0562335968017578,0.5960552215576171,0
1.0738077163696289,0.5937503814697266,0
1.0710628509521485,0.5993740081787109,0
1.0657894134521484,0.5978931427001953,0
1.0767002105712891,0.5902822494506835,0
1.0632516860961914,0.5968997955322265,0
1.0716928482055663,0.5894891738891601,0
1.0679117202758788,0.5975812911987305,0
1.0750047683715820,0.5865257263183593,0
1.0722370147705078,0.5908842086791992,0
1.0700094223022460,0.5975091934204101,0
1.0780426025390624,0.5919319152832031,0
1.0825235366821289,0.5987216949462890,0
1.0734083175659179,0.5888545989990234,0
1.0694417953491211,0.5926786422729492,0
1.0588760375976562,0.5995199203491210,0
1.0647148132324218,0.5926454544067382,0
1.0792276382446289,0.5991697311401367,0
1.0793998718261719,0.6009864807128906,0
1.0835100173950194,0.5883396148681640,0
1.0658918380737303,0.6003044128417968,0
1.0705352783203124,0.5957765579223633,0
1.0601016998291015,0.6008886337280274,0
1.0659004211425780,0.5940387725830077,0
1.0747713088989257,0.6005819320678710,0
1.0806278228759765,0.6024347305297851,0
1.0846532821655273,0.5899784088134765,0
1.0673521041870118,0.6017469406127930,0
1.0793718338012694,0.5972986221313477,0
1.0717924118041993,0.6023420333862305,0
1.0671346664428711,0.5954332351684570,0
1.0759609222412110,0.6018762588500977,0
1.0814941406250000,0.5959705352783203,0
1.0741693496704101,0.6067422866821289,0
1.0754934310913085,0.5910335540771484,0
1.0801311492919921,0.5939964294433594,0
1.0750013351440428,0.5862024307250976,0
1.0663026809692382,0.5946201324462891,0
1.0630205154418946,0.5937824249267578,0
1.0736766815185546,0.5926105499267578,0
1.0644447326660156,0.5954217910766602,0
1.0648984909057617,0.5794286727905273,0
1.0699167251586914,0.5824956893920898,0
1.0594287872314452,0.5885931015014648,0
1.0541433334350585,0.5931455612182617,0
1.0626480102539062,0.5806692123413085,0
1.0627218246459960,0.5802738189697265,0
1.0582483291625977,0.5841339111328124,0
1.0599277496337891,0.5864244461059570,0
1.0682264328002928,0.5804100036621094,0
1.0717443466186523,0.5873456954956054,0
1.0542234420776366,0.5873456954956054,0
1.0661699295043945,0.5823623657226562,0
1.0584171295166016,0.5875951766967773,0
1.0535848617553711,0.5923954010009765,0
1.0678613662719727,0.5696949005126953,0
1.0598104476928711,0.5863077163696289,0
1.0607957839965820,0.5840314865112305,0
1.0716350555419922,0.5756607055664062,0
1.0580451965332032,0.5978113174438476,0
1.0664903640747070,0.5824052810668945,0
1.0583627700805665,0.5841012954711914,0
1.0541084289550782,0.5802612304687500,0
1.0686990737915039,0.5869474411010742,0
1.0689983367919922,0.5869474411010742,0
1.0726890563964844,0.5850379943847656,0
1.0726890563964844,0.5883459091186524,0
1.0592588424682616,0.5837636947631836,0
1.0597423553466796,0.5825054168701171,0
1.0552940368652344,0.5939638137817382,0
1.0730941772460938,0.5817672729492187,0
1.0620174407958984,0.5885066986083984,0
1.0703430175781250,0.5825254440307617,0
1.0739061355590820,0.5898187637329101,0
1.0566329956054688,0.5898187637329101,0
1.0687694549560547,0.5850391387939453,0
1.0608467102050780,0.5903062820434570,0
1.0564327239990234,0.5826633453369140,0
1.0652395248413085,0.5921190261840820,0
1.0709896087646484,0.5902622222900390,0
1.0817098617553711,0.5829145431518554,0
1.0573448181152343,0.5902238845825195,0
1.0660921096801756,0.5841356277465820,0
1.0614561080932616,0.5908229827880859,0
1.0684976577758789,0.5908229827880859,0
1.0660755157470703,0.5831445693969727,0
1.0660755157470703,0.5885593414306640,0
1.0722112655639648,0.5836996078491211,0
1.0648252487182617,0.5951339721679687,0
1.0675649642944336,0.5851610183715820,0
1.0625324249267578,0.5851610183715820,0
1.0524971008300781,0.5919221878051758,0
1.0696998596191405,0.5877250671386719,0
1.0673303604125977,0.5893775939941406,0
1.0727531433105468,0.5741037368774414,0
1.0654838562011719,0.5959579467773437,0
1.0720533370971679,0.5887001037597656,0
1.0733631134033204,0.5859437942504883,0
1.0629438400268554,0.5870573043823242,0
1.0698989868164062,0.5805902481079102,0
1.0625043869018553,0.5883298873901367,0
1.0622240066528319,0.5898176193237304,0
1.0726484298706054,0.5912372589111328,0
1.0762784957885743,0.5928983688354492,0
1.0680633544921874,0.5928983688354492,0
1.0710840225219727,0.5878297805786132,0
1.0699218749999999,0.5890680313110351,0
1.0587020874023436,0.5973924636840821,0
1.0729665756225586,0.5751073837280273,0
1.0646095275878906,0.5921762466430663,0
1.0724246978759766,0.5902250289916992,0
1.0766023635864257,0.5937595367431641,0
1.0633146286010742,0.5884614944458008,0
1.0631160736083984,0.5884614944458008,0
1.0590162277221680,0.5897220611572266,0
1.0590162277221680,0.5860525131225586,0
1.0733934402465819,0.5928245544433594,0
1.0739078521728516,0.5934528350830078,0
1.0771888732910155,0.5829093933105468,0
1.0595552444458007,0.5944736480712890,0
1.0724555969238281,0.5889616012573242,0
1.0637077331542968,0.5951740264892578,0
1.0599735260009766,0.5865943908691406,0
1.0687831878662108,0.5965267181396484,0
1.0751512527465821,0.5935466766357421,0
1.0751512527465821,0.5869142532348632,0
1.0785221099853515,0.5957490921020507,0
1.0708305358886718,0.5853544235229492,0
1.0648864746093749,0.5902078628540038,0
1.0541999816894532,0.5967836380004883,0
1.0803205490112304,0.5879785537719726,0
1.0703063964843749,0.5933280944824219,0
1.0768266677856444,0.5958286285400390,0
1.0882089614868165,0.5887235641479492,0
1.0619087219238281,0.5981781005859375,0
1.0724390029907227,0.5928646087646484,0
1.0666213989257811,0.5996074676513672,0
1.0745143890380859,0.5996074676513672,0
1.0721134185791015,0.5905746459960938,0
1.0721134185791015,0.5959407806396484,0
1.0785043716430665,0.5910255432128906,0
1.0701381683349609,0.6050165176391601,0
1.0738489151000976,0.5900390624999999,0
1.0793769836425782,0.5953903198242188,0
1.0568784713745116,0.6019191741943359,0
1.0760753631591797,0.5964294433593750,0
1.0732875823974608,0.5976448059082031,0
1.0792287826538085,0.5813913345336914,0
1.0717695236206055,0.5985111236572266,0
1.0831249237060547,0.6029233932495117,0
1.0696157455444335,0.6145854949951172,0
1.0771579742431641,0.5890457153320312,0
1.0688386917114256,0.5981306076049805,0
1.0745149612426756,0.6049009323120117,0
1.0745149612426756,0.5990890502929688,0
1.0808618545532227,0.5943689346313477,0
1.0924478530883788,0.5943689346313477,0
1.0840318679809571,0.6040712356567383,0
1.0655839920043946,0.6040712356567383,0
1.0708911895751954,0.5976482391357422,0
1.0799205780029297,0.5976482391357422,0
1.0779458999633789,0.5992424011230468,0
1.0699682235717773,0.5992424011230468,0
1.0753898620605469,0.6001276016235352,0
1.0701702117919922,0.6001276016235352,0
1.0812194824218750,0.5949972152709960,0
1.0922166824340820,0.5949972152709960,0
1.0835586547851561,0.6034790039062500,0
1.0646615982055663,0.6034790039062500,0
1.0685468673706053,0.5948221206665039,0
1.0604101181030272,0.5932348251342773,0
1.0674333572387695,0.5910003662109374,0
1.0610561370849609,0.5910003662109374,0
1.0712007522583007,0.5838701248168945,0
1.0814237594604492,0.5838701248168945,0
1.0723331451416016,0.5915102005004883,0
1.0533977508544921,0.5915102005004883,0
1.0577665328979491,0.5836635589599609,0
1.0663324356079100,0.5836635589599609,0
1.0638668060302734,0.5842535018920898,0
1.0553432464599608,0.5842535018920898,0
1.0607151031494140,0.5843633651733399,0
1.0554719924926756,0.5843633651733399,0
1.0665109634399415,0.5793663024902344,0
1.0777931213378906,0.5793663024902344,0
1.0695940017700194,0.5889387130737305,0
1.0514963150024415,0.5889387130737305,0
1.0566473007202148,0.5822341918945312,0
1.0657579421997070,0.5822341918945312,0
1.0634862899780273,0.5838031768798828,0
1.0553604125976561,0.5838031768798828,0
1.0608987808227539,0.5842735290527343,0
1.0560441970825194,0.5842735290527343,0
1.0672256469726562,0.5796426773071289,0
1.0785026550292969,0.5796426773071289,0
1.0702920913696288,0.5895566940307617,0
1.0522945404052735,0.5895566940307617,0
1.0574546813964842,0.5827978134155273,0
1.0662912368774413,0.5827978134155273,0
1.0641363143920899,0.5842191696166992,0
1.0561740875244141,0.5842191696166992,0
1.0615751266479492,0.5843736648559570,0
1.0564355850219727,0.5843736648559570,0
1.0674991607666016,0.5797817230224609,0
1.0786863327026366,0.5797817230224609,0
1.0703676223754883,0.5895252227783203,0
1.0523860931396485,0.5895252227783203,0
1.0574312210083008,0.5828687667846679,0
1.0662237167358397,0.5828687667846679,0
1.0640361785888672,0.5842523574829102,0
1.0560773849487304,0.5842523574829102,0
1.0615488052368163,0.5845550537109375,0
1.0563829421997071,0.5845550537109375,0
1.0677034378051757,0.5803533554077148,0
1.0790010452270506,0.5803533554077148,0
1.0706354141235350,0.5903411865234375,0
1.0530721664428710,0.5903411865234375,0
1.0581075668334960,0.5840703964233398,0
1.0670219421386717,0.5840703964233398,0
1.0649202346801758,0.5855815887451171,0
1.0569585800170898,0.5855815887451171,0
1.0626096725463867,0.5856296539306640,0
1.0578208923339842,0.5856296539306640,0
1.0690956115722656,0.5817644119262695,0
1.0801837921142579,0.5817644119262695,0
1.0719491958618164,0.5916429519653320,0
1.0543361663818358,0.5916429519653320,0
1.0593481063842773,0.5851873397827149,0
1.0681772232055664,0.5851873397827149,0
1.0658128738403321,0.5864730834960937,0
1.0577905654907227,0.5864730834960937,0
1.0634181976318360,0.5860759735107421,0
1.0584434509277343,0.5860759735107421,0
1.0697221755981445,0.5820854187011718,0
1.0808870315551757,0.5820854187011718,0
1.0724172592163086,0.5918987274169921,0
1.0547876358032227,0.5918987274169921,0
1.0597669601440429,0.5853664398193359,0
1.0686086654663085,0.5853664398193359,0
1.0663204193115234,0.5867122650146485,0
1.0580062866210938,0.5867122650146485,0
1.0637020111083983,0.5863334655761718,0
1.0589086532592773,0.5863334655761718,0
1.0701473236083985,0.5825963973999023,0
1.0812664031982422,0.5825963973999023,0
1.0730861663818358,0.5928794860839843,0
1.0554960250854493,0.5928794860839843,0
1.0606939315795898,0.5864461898803711,0
1.0697479248046875,0.5864461898803711,0
1.0674362182617188,0.5881439208984375,0
1.0592496871948243,0.5881439208984375,0
1.0651067733764648,0.5876626968383789,0
1.0605634689331054,0.5876626968383789,0
1.0718547821044921,0.5842391967773437,0
1.0829898834228515,0.5842391967773437,0
1.0747964859008790,0.5947019577026367,0
1.0573059082031249,0.5947019577026367,0
1.0626222610473632,0.5884065628051758,0
1.0715131759643555,0.5884065628051758,0
1.0692203521728516,0.5900671005249023,0
1.0609977722167969,0.5900671005249023,0
1.0669795989990234,0.5892837524414062,0
1.0623064041137695,0.5892837524414062,0
1.0735565185546874,0.5862665176391602,0
1.0847826004028320,0.5862665176391602,0
1.0765903472900391,0.5965501785278320,0
1.0590145111083984,0.5965501785278320,0
1.0642353057861327,0.5901706695556640,0
1.0731971740722657,0.5901706695556640,0
1.0708740234375000,0.5917058944702148,0
1.0624156951904296,0.5917058944702148,0
1.0684822082519532,0.5909614562988281,0
1.0637403488159178,0.5909614562988281,0
1.0751140594482422,0.5876066207885742,0
1.0860351562499999,0.5876066207885742,0
1.0778326034545898,0.5979429244995117,0
1.0601835250854492,0.5979429244995117,0
1.0655794143676758,0.5913093566894531,0
1.0743890762329100,0.5913093566894531,0
1.0720241546630860,0.5928331375122070,0
1.0635795593261719,0.5928331375122070,0
1.0694160461425781,0.5917356491088867,0
1.0647989273071288,0.5917356491088867,0
1.0759906768798828,0.5885690689086914,0
1.0870376586914061,0.5885690689086914,0
1.0788305282592774,0.5992286682128906,0
1.0610744476318359,0.5992286682128906,0
1.0666357040405272,0.5926534652709960,0
1.0756353378295898,0.5926534652709960,0
1.0729722976684570,0.5942710876464844,0
1.0643680572509766,0.5942710876464844,0
1.0704208374023436,0.5932016372680664,0
1.0659370422363281,0.5932016372680664,0
1.0770429611206054,0.5900476455688476,0
1.0882072448730469,0.5900476455688476,0
1.0800527572631835,0.6008811950683594,0
1.0621370315551757,0.6008811950683594,0
1.0678791046142577,0.5942287445068359,0
1.0771974563598632,0.5942287445068359,0
