REDsignal,IRsignal,synced
0.7899684906005859,0.3672746658325195,0
0.8062391281127930,0.3672746658325195,0
0.8006046295166015,0.3590171813964844,0
0.8133470535278320,0.3590171813964844,0
0.8091573715209961,0.3626232147216797,0
0.8014097213745117,0.3626232147216797,0
0.8019115447998046,0.3617002487182617,0
0.8005531311035156,0.3617002487182617,0
0.8017387390136719,0.3574911117553711,0
0.8102479934692383,0.3574911117553711,0
0.8029832839965820,0.3651288986206054,0
0.7877511978149414,0.3651288986206054,0
0.7978340148925781,0.3568164825439453,0
0.8107257843017578,0.3568164825439453,0
0.8062162399291992,0.3603590011596680,0
0.7987094879150390,0.3603590011596680,0
0.7991186141967773,0.3590669631958008,0
0.7992124557495117,0.3590669631958008,0
0.7999574661254882,0.3558792114257812,0
0.8091053009033203,0.3558792114257812,0
0.8019830703735351,0.3652153015136719,0
0.7878152847290039,0.3652153015136719,0
0.7978368759155273,0.3570619583129883,0
0.8113140106201172,0.3570619583129883,0
0.8067718505859375,0.3613735198974609,0
0.7997102737426758,0.3613735198974609,0
0.8007654190063477,0.3605220794677734,0
0.8008872985839843,0.3605220794677734,0
0.8021856307983398,0.3578023910522461,0
0.8108602523803711,0.3578023910522461,0
0.8044692993164062,0.3667900085449219,0
0.7905412673950195,0.3667900085449219,0
0.8006938934326172,0.3598377227783203,0
0.8140806198120117,0.3598377227783203,0
0.8103555679321289,0.3644868850708008,0
0.8035995483398437,0.3644868850708008,0
0.8044321060180664,0.3640686035156250,0
0.8050312042236328,0.3640686035156250,0
0.8061487197875976,0.3616109848022461,0
0.8146842956542969,0.3616109848022461,0
0.8085073471069336,0.3705465316772461,0
0.7951492309570313,0.3705465316772461,0
0.8053447723388671,0.3639930725097656,0
0.8186576843261718,0.3639930725097656,0
0.8150648117065430,0.3697099685668945,0
0.8082973480224609,0.3697099685668945,0
0.8100677490234375,0.3685312271118164,0
0.8104974746704101,0.3685312271118164,0
0.8115606307983398,0.3662475585937500,0
0.8198793411254882,0.3662475585937500,0
0.8140789031982422,0.3749067306518555,0
0.8007659912109375,0.3749067306518555,0
0.8107961654663086,0.3685787200927734,0
0.8237314224243164,0.3685787200927734,0
0.8204183578491211,0.3733709335327148,0
0.8135759353637695,0.3733709335327148,0
0.8151386260986327,0.3730035781860351,0
0.8161611557006836,0.3730035781860351,0
0.8171808242797851,0.3710123062133789,0
0.8251630783081054,0.3710123062133789,0
0.8198341369628906,0.3796308517456055,0
0.8068685531616211,0.3796308517456055,0
0.8166721343994140,0.3734745025634765,0
0.8295873641967774,0.3734745025634765,0
0.8262943267822266,0.3785230636596680,0
0.8197420120239257,0.3785230636596680,0
0.8211902618408203,0.3786758422851562,0
0.8227947235107421,0.3786758422851562,0
0.8233011245727538,0.3759979248046875,0
0.8312593460083008,0.3759979248046875,0
0.8259229660034180,0.3846004486083984,0
0.8134386062622070,0.3846004486083984,0
0.8227420806884765,0.3784257888793945,0
0.8358261108398437,0.3784257888793945,0
0.8320644378662109,0.3833324432373047,0
0.8251573562622070,0.3833324432373047,0
0.8263017654418945,0.3822612762451172,0
0.8276441574096679,0.3822612762451172,0
0.8276412963867187,0.3796560287475586,0
0.8348390579223632,0.3796560287475586,0
0.8294099807739258,0.3874763488769531,0
0.8165061950683593,0.3874763488769531,0
0.8253988265991211,0.3808822631835938,0
0.8378459930419921,0.3808822631835938,0
0.8329690933227539,0.3848436355590820,0
0.8257415771484374,0.3848436355590820,0
0.8261558532714843,0.3820243835449219,0
0.8253845214843750,0.3820243835449219,0
0.8240118026733398,0.3757587432861328,0
0.8277751922607421,0.3757587432861328,0
0.8192047119140625,0.3777139663696289,0
0.8015218734741211,0.3777139663696289,0
0.8065956115722656,0.3640657424926758,0
0.8138345718383789,0.3640657424926758,0
0.8067535400390625,0.3614839553833007,0
0.7944843292236328,0.3614839553833007,0
0.7921651840209961,0.3535268783569336,0
0.7889677047729492,0.3535268783569336,0
0.7864608764648438,0.3452785491943359,0
0.7898912429809570,0.3452785491943359,0
0.7823850631713867,0.3486179351806640,0
0.7667261123657226,0.3486179351806640,0
0.7733356475830078,0.3384756088256836,0
0.7833148956298828,0.3384756088256836,0
0.7782674789428711,0.3400777816772461,0
0.7691082000732422,0.3400777816772461,0
0.7692838668823242,0.3366188049316406,0
0.7694280624389648,0.3366188049316406,0
0.7689130783081054,0.3325040817260742,0
0.7748479843139648,0.3325040817260742,0
0.7689788818359374,0.3388040542602539,0
0.7561111450195312,0.3388040542602539,0
0.7639823913574219,0.3316869735717773,0
0.7758836746215820,0.3316869735717773,0
0.7720985412597656,0.3356775283813476,0
0.7646667480468750,0.3356775283813476,0
0.7655954360961914,0.3341451644897461,0
0.7670745849609375,0.3341451644897461,0
0.7670722961425781,0.3312011718750000,0
0.7737876892089843,0.3312011718750000,0
0.7692695617675781,0.3387119293212891,0
0.7571142196655273,0.3387119293212891,0
0.7641077041625977,0.3318191528320312,0
0.7760971069335937,0.3318191528320312,0
0.7730031967163086,0.3365495681762695,0
0.7660795211791992,0.3365495681762695,0
0.7673669815063476,0.3358148574829101,0
0.7692249298095702,0.3358148574829101,0
0.7698492050170899,0.3334590911865234,0
0.7773788452148437,0.3334590911865234,0
0.7727096557617187,0.3419649124145508,0
0.7615242004394531,0.3419649124145508,0
0.7703802108764648,0.3370914459228516,0
0.7839883804321289,0.3370914459228516,0
0.7814907073974610,0.3435281753540039,0
0.7755729675292968,0.3435281753540039,0
0.7775653839111328,0.3441295623779297,0
0.7805528640747070,0.3441295623779297,0
0.7815650939941406,0.3429279327392578,0
0.7893997192382812,0.3429279327392578,0
0.7849491119384765,0.3513364791870117,0
0.7735513687133789,0.3513364791870117,0
0.7817075729370117,0.3458713531494140,0
0.7945215225219726,0.3458713531494140,0
0.7910413742065430,0.3507974624633789,0
0.7839620590209960,0.3507974624633789,0
0.7850492477416992,0.3495723724365234,0
0.7869964599609375,0.3495723724365234,0
0.7865982055664062,0.3465723037719726,0
0.7928398132324218,0.3465723037719726,0
0.7873821258544922,0.3529100418090820,0
0.7748668670654296,0.3529100418090820,0
0.7820783615112304,0.3458719253540039,0
0.7939275741577149,0.3458719253540039,0
0.7899610519409179,0.3498493194580078,0
0.7821475982666015,0.3498493194580078,0
0.7828760147094727,0.3481430053710937,0
0.7846446990966797,0.3481430053710937,0
0.7846446990966797,0.3452001571655273,0
0.7908542633056640,0.3452001571655273,0
0.7860179901123047,0.3518342971801758,0
0.7739948272705078,0.3518342971801758,0
0.7815021514892578,0.3449501037597656,0
0.7941427230834961,0.3449501037597656,0
0.7905544281005860,0.3505428314208984,0
0.7833692550659179,0.3505428314208984,0
0.7846784591674805,0.3497966766357422,0
0.7870542526245117,0.3497966766357422,0
0.7872425079345703,0.3468366622924804,0
0.7941204071044922,0.3468366622924804,0
0.7891725540161133,0.3545963287353516,0
0.7777353286743164,0.3545963287353516,0
0.7852266311645507,0.3488857269287109,0
0.7983816146850585,0.3488857269287109,0
0.7950422286987304,0.3544240951538086,0
0.7881196975708008,0.3544240951538086,0
0.7896697998046874,0.3541826248168945,0
0.7926664352416992,0.3541826248168945,0
0.7929244995117187,0.3524803161621093,0
0.7999757766723633,0.3524803161621093,0
0.7957534790039062,0.3602216720581055,0
0.7844804763793946,0.3602216720581055,0
0.7925840377807617,0.3549190521240234,0
0.8055644989013672,0.3549190521240234,0
0.8025415420532226,0.3608734130859375,0
0.7957603454589843,0.3608734130859375,0
0.7974878311157226,0.3608716964721679,0
0.8002447128295899,0.3608716964721679,0
0.8010532379150390,0.3593164443969726,0
0.8082864761352538,0.3593164443969726,0
0.8039154052734375,0.3668809890747070,0
0.7927734375000000,0.3668809890747070,0
0.8003997802734375,0.3613054275512695,0
0.8134757995605468,0.3613054275512695,0
0.8101043701171875,0.3669330596923828,0
0.8032917022705078,0.3669330596923828,0
0.8045053482055664,0.3666297912597656,0
0.8077606201171875,0.3666297912597656,0
0.8076702117919922,0.3647426605224609,0
0.8146064758300781,0.3647426605224609,0
0.8093862533569336,0.3714094161987305,0
0.7980171203613281,0.3714094161987305,0
0.8052658081054688,0.3653022766113281,0
0.8180517196655274,0.3653022766113281,0
0.8146751403808593,0.3706083297729492,0
0.8089136123657227,0.3706083297729492,0
0.8082361221313477,0.3698404312133789,0
0.8113883972167969,0.3698404312133789,0
0.8112447738647460,0.3677295684814453,0
0.8176820755004882,0.3677295684814453,0
0.8128469467163085,0.3742876052856445,0
0.8013141632080077,0.3742876052856445,0
0.8089513778686523,0.3680477142333984,0
0.8215209960937500,0.3680477142333984,0
0.8178514480590821,0.3733194351196289,0
0.8105627059936523,0.3733194351196289,0
0.8117528915405273,0.3725332260131836,0
0.8152153015136718,0.3725332260131836,0
0.8144645690917969,0.3704332351684570,0
0.8207462310791015,0.3704332351684570,0
0.8157154083251953,0.3769397735595703,0
0.8044475555419922,0.3769397735595703,0
0.8119640350341797,0.3707605361938476,0
0.8249170303344726,0.3707605361938476,0
0.8213584899902343,0.3764207839965820,0
0.8141017913818359,0.3764207839965820,0
0.8154207229614258,0.3758211135864258,0
0.8185558319091797,0.3758211135864258,0
0.8183647155761719,0.3738498687744141,0
0.8250892639160156,0.3738498687744141,0
0.8198907852172851,0.3804182052612304,0
0.8087722778320312,0.3804182052612304,0
0.8160850524902343,0.3740186691284180,0
0.8284618377685546,0.3740186691284180,0
0.8247207641601563,0.3790546417236328,0
0.8168809890747070,0.3790546417236328,0
0.8176059722900391,0.3772396087646484,0
0.8192539215087891,0.3772396087646484,0
0.8171178817749023,0.3721435546875000,0
0.8206363677978515,0.3721435546875000,0
0.8122203826904296,0.3731946945190430,0
0.7963548660278320,0.3662527084350586,0
0.8052074432373046,0.3662527084350586,0
0.8003786087036132,0.3442354202270508,0
0.7907409667968750,0.3516546249389648,0
0.7970872879028320,0.3516546249389648,0
0.7895261764526367,0.3507476806640625,0
0.7716001510620117,0.3507476806640625,0
0.7735702514648437,0.3415712356567382,0
0.7789518356323242,0.3415712356567382,0
0.7753578186035156,0.3386941909790039,0
0.7715560913085937,0.3386941909790039,0
0.7684867858886718,0.3379457473754883,0
0.7610778808593750,0.3379457473754883,0
0.7651542663574219,0.3324972152709961,0
0.7752290725708008,0.3324972152709961,0
0.7700117111206054,0.3365610122680664,0
0.7554296493530274,0.3365610122680664,0
0.7595752716064453,0.3310981750488281,0
0.7671913146972656,0.3310981750488281,0
0.7654174804687500,0.3314237594604492,0
0.7645654678344727,0.3314237594604492,0
0.7626148223876953,0.3333892822265625,0
0.7569253921508788,0.3333892822265625,0
0.7618944168090820,0.3300756454467773,0
0.7730266571044921,0.3300756454467773,0
0.7682796478271484,0.3354944229125976,0
0.7546142578125000,0.3354944229125976,0
0.7592382431030273,0.3309099197387695,0
0.7673938751220702,0.3309099197387695,0
0.7647565841674805,0.3319530487060547,0
0.7650564193725585,0.3319530487060547,0
0.7646781921386718,0.3345531463623047,0
0.7589670181274414,0.3345531463623047,0
0.7760290145874024,0.3320142745971680,0
0.7634645462036133,0.3320142745971680,0
0.7716007232666016,0.3381162643432617,0
0.7579822540283203,0.3381162643432617,0
0.7640842437744141,0.3350229263305664,0
0.7735233306884766,0.3350229263305664,0
0.7726736068725586,0.3375297546386719,0
0.7735422134399413,0.3375297546386719,0
0.7732572555541992,0.3414974212646484,0
0.7687173843383789,0.3414974212646484,0
0.7745756149291992,0.3403644561767578,0
0.7872459411621093,0.3403644561767578,0
0.7830728530883789,0.3476434707641601,0
0.7704643249511719,0.3476434707641601,0
0.7753269195556640,0.3443527221679688,0
0.7847162246704101,0.3443527221679688,0
0.7837572097778320,0.3461076736450195,0
0.7836965560913086,0.3461076736450195,0
0.7828565597534179,0.3486642837524414,0
0.7769170761108398,0.3486642837524414,0
0.7818351745605469,0.3457162857055664,0
0.7929307937622070,0.3457162857055664,0
0.7875984191894531,0.3510646820068359,0
0.7737573623657227,0.3510646820068359,0
0.7788476943969727,0.3458003997802734,0
0.7862617492675781,0.3458003997802734,0
0.7841766357421874,0.3455228805541992,0
0.7827072143554688,0.3455228805541992,0
0.7813493728637695,0.3471605300903320,0
0.7748485565185547,0.3471605300903320,0
0.7796047210693359,0.3438034057617188,0
0.7904502868652343,0.3438034057617188,0
0.7852695465087890,0.3492731094360351,0
0.7715263366699219,0.3492731094360351,0
0.7762836456298828,0.3443235397338867,0
0.7845714569091796,0.3443235397338867,0
0.7829263687133788,0.3451841354370117,0
0.7823015213012695,0.3451841354370117,0
0.7811147689819335,0.3472223281860352,0
0.7758207321166992,0.3472223281860352,0
0.7808423995971679,0.3436986923217774,0
0.7922166824340821,0.3436986923217774,0
0.7871429443359375,0.3509405136108398,0
0.7736852645874023,0.3509405136108398,0
0.7775825500488281,0.3469671249389648,0
0.7877683639526367,0.3469671249389648,0
0.7863475799560546,0.3481922149658203,0
0.7861352920532226,0.3481922149658203,0
0.7853708267211914,0.3509136199951172,0
0.7800979614257812,0.3509136199951172,0
0.7857467651367187,0.3490379333496094,0
0.7976291656494140,0.3490379333496094,0
0.7917732238769531,0.3561258316040039,0
0.7797780990600586,0.3561258316040039,0
0.7860317230224609,0.3523338317871094,0
0.7949169158935546,0.3523338317871094,0
0.7938394546508789,0.3543222427368164,0
0.7936391830444336,0.3543222427368164,0
0.7927597045898437,0.3570682525634766,0
0.7879274368286132,0.3570682525634766,0
0.7935962677001953,0.3553161621093750,0
0.8052938461303710,0.3553161621093750,0
0.8005393981933594,0.3625745773315430,0
0.7876716613769531,0.3625745773315430,0
0.7934818267822266,0.3586177825927734,0
0.8022365570068359,0.3586177825927734,0
0.8011281967163085,0.3604099273681641,0
0.8009874343872070,0.3604099273681641,0
0.8002664566040039,0.3630689620971679,0
0.7950576782226563,0.3630689620971679,0
0.8007122039794922,0.3611755371093750,0
0.8122512817382812,0.3611755371093750,0
0.8073440551757812,0.3681358337402343,0
0.7943017959594726,0.3681358337402343,0
0.7999053955078125,0.3641607284545899,0
0.8086904525756836,0.3641607284545899,0
0.8072381973266601,0.3652708053588867,0
0.8066825866699219,0.3652708053588867,0
0.8058437347412110,0.3675006866455078,0
0.8004346847534179,0.3675006866455078,0
0.8057407379150391,0.3650739669799805,0
0.8167957305908203,0.3650739669799805,0
0.8115629196166992,0.3716371536254883,0
0.7981985092163085,0.3716371536254883,0
0.8038003921508788,0.3669399261474609,0
0.8122581481933594,0.3669399261474609,0
0.8108299255371093,0.3680980682373047,0
0.8098571777343749,0.3680980682373047,0
0.8088003158569336,0.3700532913208008,0
0.8035291671752930,0.3700532913208008,0
0.8087911605834961,0.3675739288330078,0
0.8198278427124023,0.3675739288330078,0
0.8150018692016602,0.3742738723754883,0
0.8012609481811523,0.3742738723754883,0
0.8071163177490234,0.3696533203125000,0
0.8156867980957031,0.3696533203125000,0
0.8141338348388671,0.3708652496337890,0
0.8133087158203125,0.3708652496337890,0
0.8123291015624999,0.3729972839355469,0
0.8070356369018554,0.3729972839355469,0
0.8126558303833008,0.3707479476928711,0
0.8108242034912109,0.3707479476928711,0
0.8184436798095703,0.3777317047119140,0
0.8050701141357421,0.3777317047119140,0
0.8102851867675781,0.3729120254516601,0
0.8193128585815429,0.3729120254516601,0
0.8184597015380859,0.3743894577026367,0
0.8173336029052735,0.3743894577026367,0
0.8047737121582031,0.3764127731323242,0
0.8044183731079101,0.3764127731323242,0
0.8152811050415039,0.3738613128662109,0
0.8267091751098633,0.3738613128662109,0
0.8212926864624023,0.3799301147460937,0
0.8070184707641601,0.3799301147460937,0
0.8116086959838867,0.3728136062622070,0
0.8176231384277344,0.3728136062622070,0
0.8135032653808594,0.3693986892700195,0
0.8081651687622070,0.3693986892700195,0
0.8034244537353515,0.3645275115966797,0
0.7931962966918945,0.3645275115966797,0
0.7946479797363281,0.3545488357543945,0
0.7999912261962890,0.3545488357543945,0
0.7909864425659180,0.3540756225585938,0
0.7725191116333008,0.3540756225585938,0
0.7750505447387696,0.3427253723144531,0
0.7793809890747070,0.3427253723144531,0
0.7751810073852539,0.3388252258300781,0
0.7708488464355469,0.3388252258300781,0
0.7676593780517578,0.3364088058471680,0
0.7595478057861328,0.3364088058471680,0
0.7633672714233398,0.3304716110229492,0
0.7716659545898438,0.3304716110229492,0
0.7651960372924804,0.3349405288696289,0
0.7500926971435546,0.3349405288696289,0
0.7557701110839844,0.3284471511840820,0
0.7631086349487305,0.3284471511840820,0
0.7604581832885742,0.3278783798217773,0
0.7581676483154297,0.3278783798217773,0
0.7567737579345702,0.3284906387329101,0
0.7511180877685547,0.3284906387329101,0
0.7548414230346679,0.3250957489013672,0
0.7655691146850586,0.3250957489013672,0
0.7605978012084961,0.3316909790039063,0
0.7470829010009765,0.3316909790039063,0
0.7530138015747070,0.3262739181518555,0
0.7613004684448242,0.3262739181518555,0
0.7586111068725586,0.3272140502929687,0
0.7577602386474609,0.3272140502929687,0
0.7570919036865235,0.3286743164062500,0
0.7518350601196289,0.3286743164062500,0
0.7570409774780273,0.3258195877075195,0
0.7677732467651367,0.3258195877075195,0
0.7622360229492188,0.3329795837402343,0
0.7492630004882812,0.3329795837402343,0
0.7554891586303710,0.3280729293823242,0
0.7641317367553710,0.3280729293823242,0
0.7628540039062500,0.3297283172607422,0
0.7619235992431640,0.3297283172607422,0
0.7617788314819336,0.3321538925170898,0
0.7573791503906250,0.3321538925170898,0
0.7632219314575195,0.3307651519775390,0
0.7750104904174805,0.3307651519775390,0
0.7700706481933594,0.3395856857299804,0
0.7578123092651367,0.3395856857299804,0
0.7651863098144531,0.3359464645385742,0
0.7747289657592773,0.3359464645385742,0
0.7735828399658203,0.3383932113647461,0
0.7727869033813476,0.3383932113647461,0
0.7723955154418946,0.3407524108886719,0
0.7679031372070312,0.3407524108886719,0
0.7733900070190429,0.3385705947875977,0
0.7843362808227539,0.3385705947875977,0
0.7786256790161132,0.3459497451782226,0
0.7652549743652344,0.3459497451782226,0
0.7714273452758789,0.3404697418212890,0
0.7796894073486328,0.3404697418212890,0
0.7776208877563476,0.3410688400268554,0
0.7753452301025391,0.3410688400268554,0
0.7739805221557617,0.3417285919189453,0
0.7683877944946289,0.3417285919189453,0
0.7732646942138671,0.3382398605346680,0
0.7834156036376952,0.3382398605346680,0
0.7774555206298828,0.3451910018920898,0
0.7630760192871093,0.3451910018920898,0
0.7696855545043945,0.3391479492187500,0
0.7780769348144531,0.3391479492187500,0
0.7761503219604492,0.3400154113769531,0
0.7739215850830078,0.3400154113769531,0
0.7729860305786133,0.3410785675048828,0
0.7679506301879883,0.3410785675048828,0
0.7732412338256835,0.3382358551025391,0
0.7837995529174805,0.3382358551025391,0
0.7781610488891602,0.3459005355834961,0
0.7650913238525391,0.3459005355834961,0
0.7716545104980469,0.3407449722290039,0
0.7802742004394531,0.3407449722290039,0
0.7788923263549804,0.3423322677612304,0
0.7770738601684570,0.3423322677612304,0
0.7764810562133789,0.3440780639648438,0
0.7718313217163085,0.3440780639648438,0
0.7775630950927734,0.3408605575561524,0
0.7887742996215820,0.3408605575561524,0
0.7830739974975586,0.3501806259155273,0
0.7705524444580077,0.3501806259155273,0
0.7776409149169922,0.3456899642944336,0
0.7868030548095702,0.3456899642944336,0
0.7855957031249999,0.3478168487548828,0
0.7838436126708984,0.3478168487548828,0
0.7835706710815430,0.3498882293701172,0
0.7793260574340820,0.3498882293701172,0
0.7850904464721680,0.3479352951049804,0
0.7960727691650390,0.3479352951049804,0
0.7910293579101563,0.3565641403198242,0
0.7784774780273437,0.3565641403198242,0
0.7867452621459960,0.3524156570434570,0
0.7952362060546875,0.3524156570434570,0
0.7931396484375000,0.3543107986450195,0
0.7916032791137695,0.3543107986450195,0
0.7913852691650390,0.3559289932250976,0
0.7869798660278320,0.3559289932250976,0
0.7926378250122070,0.3541637420654297,0
0.8035251617431640,0.3541637420654297,0
0.7984434127807617,0.3626993179321289,0
0.7854955673217773,0.3626993179321289,0
0.7912736892700195,0.3579357147216797,0
0.8010910034179687,0.3579357147216797,0
0.8000501632690430,0.3598623275756836,0
0.7980531692504883,0.3598623275756836,0
0.7977087020874023,0.3615863800048828,0
0.7932380676269531,0.3615863800048828,0
0.7990236282348633,0.3589490890502929,0
0.8091001510620117,0.3589490890502929,0
0.8038902282714844,0.3671516418457031,0
0.7907867431640625,0.3671516418457031,0
0.7976852416992187,0.3618776321411133,0
0.8065727233886718,0.3618776321411133,0
0.8044738769531250,0.3635021209716797,0
0.8023046493530274,0.3635021209716797,0
0.8066173553466797,0.3648347854614258,0
0.8066173553466797,0.3526182174682617,0
0.8066173553466797,0.3662143707275390,0
0.7997869491577149,0.3652296066284180,0
0.8043880462646484,0.3652296066284180,0
0.8039136886596679,0.3633911132812500,0
0.8097822189331054,0.3633911132812500,0
0.8037918090820312,0.3711999893188476,0
0.7941272735595702,0.3711999893188476,0
0.8009119033813477,0.3622644424438476,0
0.8140943527221679,0.3622644424438476,0
0.8096935272216796,0.3687778472900390,0
0.8011470794677734,0.3687778472900390,0
0.8032281875610351,0.3686662673950195,0
0.8080713272094726,0.3686662673950195,0
0.8077846527099609,0.3669725418090820,0
0.8138923645019531,0.3669725418090820,0
0.8077972412109374,0.3745651245117188,0
0.7983209609985351,0.3745651245117188,0
0.8051015853881835,0.3659540176391601,0
0.8185272216796875,0.3659540176391601,0
0.8141870498657227,0.3727426528930664,0
0.8058437347412110,0.3727426528930664,0
0.8081377029418945,0.3726808547973633,0
0.8129756927490234,0.3726808547973633,0
0.8133951187133789,0.3714792251586914,0
0.8191698074340820,0.3714792251586914,0
0.8132177352905273,0.3793092727661133,0
0.8172397613525391,0.3741920471191406,0
0.8194404602050781,0.3755121231079102,0
0.8194404602050781,0.3635719299316406,0
0.8194404602050781,0.3771377563476562,0
0.8127462387084960,0.3762691497802734,0
0.8170171737670898,0.3762691497802734,0
0.8163585662841797,0.3735918045043945,0
0.8203062057495117,0.3735918045043945,0
0.8126140594482422,0.3777626037597656,0
0.7996147155761718,0.3777626037597656,0
0.8033620834350585,0.3631187438964844,0
0.8113042831420898,0.3631187438964844,0
0.8018594741821289,0.3617677688598633,0
0.7878467559814453,0.3617677688598633,0
0.7860168457031250,0.3531635284423828,0
0.7853187561035156,0.3531635284423828,0
0.7814678192138672,0.3440145492553711,0
0.7816108703613281,0.3440145492553711,0
0.7727857589721679,0.3452287673950195,0
0.7587032318115234,0.3452287673950195,0
0.7633518218994141,0.3311256408691406,0
0.7730970382690430,0.3311256408691406,0
0.7661750793457031,0.3326162338256836,0
0.7545976638793945,0.3326162338256836,0
0.7553924560546875,0.3294427871704101,0
0.7581161499023438,0.3294427871704101,0
0.7566244125366210,0.3254316329956055,0
0.7604953765869140,0.3254316329956055,0
0.7539676666259766,0.3306026458740234,0
0.7431758880615235,0.3306026458740234,0
0.7493024826049804,0.3208402633666992,0
0.7618051528930664,0.3208402633666992,0
0.7564870834350585,0.3264169692993164,0
0.7471349716186523,0.3264169692993164,0
0.7492361068725586,0.3250339508056641,0
0.7528369903564452,0.3250339508056641,0
0.7533834457397460,0.3230638504028320,0
0.7586717605590820,0.3230638504028320,0
0.7526487350463867,0.3301054000854492,0
0.7428554534912110,0.3301054000854492,0
0.7492504119873047,0.3206388473510742,0
0.7621805191040039,0.3206388473510742,0
0.7571943283081054,0.3269330978393555,0
0.7481918334960938,0.3269330978393555,0
0.7505350112915039,0.3258550643920898,0
0.7553289413452148,0.3258550643920898,0
0.7551429748535156,0.3240909576416016,0
0.7605445861816406,0.3240909576416016,0
0.7546966552734374,0.3317132949829101,0
0.7452941894531250,0.3317132949829101,0
0.7520805358886719,0.3230255126953125,0
0.7656366348266601,0.3230255126953125,0
0.7613330841064453,0.3309139251708984,0
0.7539407730102539,0.3309139251708984,0
0.7565534591674804,0.3306489944458008,0
0.7623979568481445,0.3306489944458008,0
0.7636859893798827,0.3308029174804688,0
0.7700031280517577,0.3308029174804688,0
0.7641191482543945,0.3393253326416015,0
0.7553140640258789,0.3393253326416015,0
0.7621261596679687,0.3313499450683594,0
0.7761211395263672,0.3313499450683594,0
0.7720487594604492,0.3386135101318359,0
0.7634239196777344,0.3386135101318359,0
0.7659564971923828,0.3385540008544922,0
0.7712980270385742,0.3385540008544922,0
0.7709260940551758,0.3365255355834961,0
0.7759248733520507,0.3365255355834961,0
0.7701444625854492,0.3435539245605468,0
0.7597921371459960,0.3435539245605468,0
0.7661012649536133,0.3339002609252930,0
0.7790182113647460,0.3339002609252930,0
0.7734683990478516,0.3395101547241211,0
0.7637643814086914,0.3395101547241211,0
0.7658929824829102,0.3377883911132812,0
0.7723823547363281,0.3377883911132812,0
0.7698223114013671,0.3355218887329102,0
0.7744955062866211,0.3355218887329102,0
0.7685846328735352,0.3426097869873047,0
0.7585647583007812,0.3426097869873047,0
0.7654993057250976,0.3332771301269531,0
0.7786153793334961,0.3332771301269531,0
0.7728469848632812,0.3394386291503906,0
0.7638931274414062,0.3394386291503906,0
0.7664955139160156,0.3384183883666992,0
0.7715681076049804,0.3384183883666992,0
0.7713003158569336,0.3370027542114258,0
0.7767271041870117,0.3370027542114258,0
0.7712533950805663,0.3447727203369140,0
0.7617422103881836,0.3447727203369140,0
0.7685914993286133,0.3360855102539063,0
0.7821475982666015,0.3360855102539063,0
0.7772203445434570,0.3430686950683594,0
0.7685153961181640,0.3430686950683594,0
0.7713970184326172,0.3429353713989258,0
0.7774251937866211,0.3429353713989258,0
0.7773330688476562,0.3418498992919922,0
0.7829315185546875,0.3418498992919922,0
0.7777072906494140,0.3501583099365234,0
0.7686292648315429,0.3501583099365234,0
0.7755735397338867,0.3418704986572266,0
0.7893470764160156,0.3418704986572266,0
0.7844278335571289,0.3491477966308594,0
0.7760181427001953,0.3491477966308594,0
0.7791383743286132,0.3490905761718750,0
0.7849359512329102,0.3490905761718750,0
0.7850097656250000,0.3483444213867187,0
0.7906568527221679,0.3483444213867187,0
0.7856620788574219,0.3568496704101562,0
0.7765645980834961,0.3568496704101562,0
0.7836027145385742,0.3485069274902344,0
0.7973751068115235,0.3485069274902344,0
0.7924627304077149,0.3562397003173828,0
0.7838499069213867,0.3562397003173828,0
0.7868173599243163,0.3553813934326172,0
0.7926332473754882,0.3553813934326172,0
0.7925645828247070,0.3544830322265625,0
0.7982603073120117,0.3544830322265625,0
0.7929702758789062,0.3627353668212890,0
0.7837263107299804,0.3627353668212890,0
0.7901756286621093,0.3538856506347656,0
0.8038908004760742,0.3538856506347656,0
0.7985538482666016,0.3609077453613281,0
0.7896429061889648,0.3609077453613281,0
0.7924192428588867,0.3600208282470703,0
0.7981109619140625,0.3600208282470703,0
0.7978918075561523,0.3589056015014648,0
0.8032876968383789,0.3589056015014648,0
0.7976549148559570,0.3665788650512695,0
0.7881380081176758,0.3665788650512695,0
0.7939390182495117,0.3576467514038086,0
0.8080026626586914,0.3576467514038086,0
0.8027332305908202,0.3641115188598633,0
0.7934022903442383,0.3641115188598633,0
0.7965391159057617,0.3633207321166992,0
0.8018812179565430,0.3633207321166992,0
0.8016180038452149,0.3619234085083008,0
0.8067289352416992,0.3619234085083008,0
0.8014114379882812,0.3695457458496094,0
0.7915809631347656,0.3695457458496094,0
0.7982671737670898,0.3604391098022461,0
0.8115045547485351,0.3604391098022461,0
0.8060594558715820,0.3671201705932617,0
0.7967330932617187,0.3671201705932617,0
0.7996753692626953,0.3659643173217773,0
0.8052108764648437,0.3659643173217773,0
0.8047971725463867,0.3645109176635742,0
0.8099847793579101,0.3645109176635742,0
0.8045951843261718,0.3722476959228516,0
0.7949838638305664,0.3722476959228516,0
0.8016197204589843,0.3634019851684570,0
0.8151283264160156,0.3634019851684570,0
0.8098239898681641,0.3701597213745117,0
0.8003969192504883,0.3701597213745117,0
0.8034908294677734,0.3694250106811524,0
0.8092609405517578,0.3694250106811524,0
0.8090864181518554,0.3684162139892578,0
0.8143592834472656,0.3684162139892578,0
0.8092432022094727,0.3761907577514648,0
0.7997182846069336,0.3761907577514648,0
0.8068634033203125,0.3672065734863281,0
0.8203857421874999,0.3672065734863281,0
0.8148971557617187,0.3747831344604492,0
0.8058265686035156,0.3747831344604492,0
0.8092031478881836,0.3741193771362304,0
0.8150001525878906,0.3741193771362304,0
0.8151071548461913,0.3732873916625977,0
0.8207130432128906,0.3732873916625977,0
0.8153635025024414,0.3813457489013672,0
0.8059679031372070,0.3813457489013672,0
0.8127748489379882,0.3727643966674805,0
0.8263853073120117,0.3727643966674805,0
0.8208721160888671,0.3795764923095703,0
0.8114496231079101,0.3795764923095703,0
0.8143398284912109,0.3782958984375000,0
0.8194038391113281,0.3782958984375000,0
0.8184122085571289,0.3756534576416016,0
0.8216285705566406,0.3756534576416016,0
0.8145984649658203,0.3797601699829101,0
0.8016597747802734,0.3797601699829101,0
0.8047056198120117,0.3648605346679688,0
0.8129098892211913,0.3648605346679688,0
0.8029827117919922,0.3631187438964844,0
0.7870851516723633,0.3631187438964844,0
0.7860168457031250,0.3537694931030274,0
0.7861038208007812,0.3537694931030274,0
0.7816331863403320,0.3443916320800781,0
0.7812074661254883,0.3443916320800781,0
0.7726713180541992,0.3451818466186523,0
0.7589069366455078,0.3451818466186523,0
0.7642152786254882,0.3299846649169922,0
0.7743576049804687,0.3299846649169922,0
0.7660646438598633,0.3340169906616211,0
0.7535596847534179,0.3340169906616211,0
0.7551984786987305,0.3298782348632812,0
0.7587942123413086,0.3298782348632812,0
0.7576532363891602,0.3264404296875000,0
0.7612197875976562,0.3264404296875000,0
0.7553855895996093,0.3322877883911133,0
0.7449651718139648,0.3322877883911133,0
0.7511312484741210,0.3224573135375977,0
0.7637500762939453,0.3224573135375977,0
0.7582889556884765,0.3282548904418945,0
0.7479955673217773,0.3282548904418945,0
0.7510889053344726,0.3268123626708984,0
0.7565660476684570,0.3268123626708984,0
0.7561105728149414,0.3254882812500000,0
0.7610658645629883,0.3254882812500000,0
0.7560201644897461,0.3326248168945312,0
0.7463584899902344,0.3326248168945312,0
0.7531185150146484,0.3238615036010742,0
0.7663644790649414,0.3238615036010742,0
0.7606687545776367,0.3303949356079102,0
0.7511266708374024,0.3303949356079102,0
0.7544528961181640,0.3294279098510742,0
0.7602630615234375,0.3294279098510742,0
0.7602287292480469,0.3287143707275391,0
0.7655010223388672,0.3287143707275391,0
0.7608078002929687,0.3367046356201172,0
0.7521480560302735,0.3367046356201172,0
0.7595901489257812,0.3290508270263672,0
0.7737636566162109,0.3290508270263672,0
0.7687053680419922,0.3371435165405273,0
0.7603162765502930,0.3371435165405273,0
0.7643348693847656,0.3376401901245117,0
0.7710142135620117,0.3376401901245117,0
0.7716997146606445,0.3383279800415039,0
0.7777919769287109,0.3383279800415039,0
0.7735422134399413,0.3467742919921875,0
0.7645786285400390,0.3467742919921875,0
0.7716001510620117,0.3389350891113281,0
0.7856002807617187,0.3389350891113281,0
0.7795886993408203,0.3467370986938477,0
0.7688764572143555,0.3467370986938477,0
0.7730735778808594,0.3442028045654297,0
0.7783189773559570,0.3442028045654297,0
0.7777513504028321,0.3425067901611328,0
0.7819118499755859,0.3425067901611328,0
0.7762619018554687,0.3486568450927734,0
0.7662763595581055,0.3486568450927734,0
0.7720790863037109,0.3387044906616211,0
0.7844598770141601,0.3387044906616211,0
0.7777507781982421,0.3439498901367187,0
0.7669773101806641,0.3439498901367187,0
0.7698125839233398,0.3415042877197266,0
0.7748445510864258,0.3415042877197266,0
0.7740983963012695,0.3396411895751953,0
0.7781244277954101,0.3396411895751953,0
0.7728767395019531,0.3461860656738281,0
0.7631086349487305,0.3461860656738281,0
0.7696683883666992,0.3369815826416016,0
0.7826408386230469,0.3369815826416016,0
0.7763076782226562,0.3430789947509765,0
0.7663295745849609,0.3430789947509765,0
0.7698406219482422,0.3418315887451172,0
0.7755397796630860,0.3418315887451172,0
0.7754751205444336,0.3409017562866211,0
0.7801248550415039,0.3409017562866211,0
0.7753194808959961,0.3481584548950195,0
0.7662134170532227,0.3481584548950195,0
0.7730203628540039,0.3398918151855468,0
0.7867389678955078,0.3398918151855468,0
0.7809253692626953,0.3467296600341797,0
0.7712465286254883,0.3467296600341797,0
0.7744812011718750,0.3465116500854492,0
0.7811988830566406,0.3465116500854492,0
0.7811805725097656,0.3458467483520508,0
0.7861679077148437,0.3458467483520508,0
0.7817899703979492,0.3543439865112304,0
0.7732137680053711,0.3543439865112304,0
0.7798976898193359,0.3455177307128906,0
0.7937816619873047,0.3455177307128906,0
0.7880149841308594,0.3528654098510742,0
0.7785043716430664,0.3528654098510742,0
0.7823209762573242,0.3523447036743164,0
0.7890329360961914,0.3523447036743164,0
0.7888561248779297,0.3521381378173828,0
0.7938560485839844,0.3521381378173828,0
0.7894535064697266,0.3598165512084961,0
0.7806180953979492,0.3598165512084961,0
0.7874588012695313,0.3518703460693359,0
0.8015275955200195,0.3518703460693359,0
0.7952642440795898,0.3588764190673828,0
0.7855384826660156,0.3588764190673828,0
0.7892360687255859,0.3579551696777344,0
0.7954656600952148,0.3579551696777344,0
0.7953483581542968,0.3576879501342773,0
0.8000999450683594,0.3576879501342773,0
0.7958621978759766,0.3650070190429687,0
0.7864906311035156,0.3650070190429687,0
0.7934343338012695,0.3566413879394531,0
0.8068685531616211,0.3566413879394531,0
0.8008289337158203,0.3632898330688477,0
0.7907444000244140,0.3632898330688477,0
0.7941759109497070,0.3621150970458984,0
0.8003019332885742,0.3621150970458984,0
0.7999752044677734,0.3613237380981445,0
0.8045459747314453,0.3613237380981445,0
0.8028505325317382,0.3683338165283203,0
0.8028505325317382,0.3632291793823242,0
0.7992050170898437,0.3596099853515625,0
0.7937765121459961,0.3659231185913086,0
0.7971010208129883,0.3647798538208007,0
0.8036029815673827,0.3647798538208007,0
0.8026130676269531,0.3636217117309570,0
0.8071203231811523,0.3636217117309570,0
0.8024940490722656,0.3704423904418945,0
0.7929845809936523,0.3704423904418945,0
0.7995918273925781,0.3618495941162109,0
0.8129951477050781,0.3618495941162109,0
0.8067466735839843,0.3684110641479492,0
0.7964715957641602,0.3684110641479492,0
0.8002836227416992,0.3671768188476562,0
0.8062831878662109,0.3671768188476562,0
0.8061258316040039,0.3665588378906250,0
0.8106988906860352,0.3665588378906250,0
0.8062574386596679,0.3737154006958008,0
0.7972011566162109,0.3737154006958008,0
0.8038467407226563,0.3655620574951172,0
0.8174674987792968,0.3655620574951172,0
0.8114622116088867,0.3723993301391602,0
0.8013599395751952,0.3723993301391602,0
0.8051353454589844,0.3713430404663086,0
0.8112934112548827,0.3713430404663086,0
0.8109878540039063,0.3709207534790039,0
0.8155935287475585,0.3709207534790039,0
0.8110828399658203,0.3775657653808593,0
0.8020505905151367,0.3775657653808593,0
0.8087985992431640,0.3695365905761719,0
0.8220611572265625,0.3695365905761719,0
0.8158441543579101,0.3757593154907227,0
0.8049779891967773,0.3757593154907227,0
0.8075929641723633,0.3730350494384765,0
0.8122964859008789,0.3730350494384765,0
0.8101638793945313,0.3693277359008789,0
0.8111555099487304,0.3693277359008789,0
0.8038181304931641,0.3706317901611328,0
0.7897378921508789,0.3706317901611328,0
0.7925405502319336,0.3542186737060547,0
0.8000375747680664,0.3542186737060547,0
0.7900468826293945,0.3532814025878906,0
0.7742025375366210,0.3532814025878906,0
0.7743358612060547,0.3445724487304687,0
0.7753898620605468,0.3445724487304687,0
0.7719217300415039,0.3375675201416016,0
0.7721117019653320,0.3375675201416016,0
0.7653053283691406,0.3394718170166016,0
0.7529817581176758,0.3394718170166016,0
0.7577573776245117,0.3272712707519531,0
0.7683734893798828,0.3272712707519531,0
0.7605731964111327,0.3305694580078125,0
0.7483406066894531,0.3305694580078125,0
0.7506443023681640,0.3267168045043945,0
0.7552694320678711,0.3267168045043945,0
0.7546463012695312,0.3244256973266602,0
0.7574455261230468,0.3244256973266602,0
0.7523294448852539,0.3298072814941406,0
0.7425550460815430,0.3298072814941406,0
0.7487846374511719,0.3206411361694336,0
0.7615539550781250,0.3206411361694336,0
0.7554239273071289,0.3266040802001953,0
0.7446876525878906,0.3266040802001953,0
0.7480556488037109,0.3248657226562500,0
0.7539070129394531,0.3248657226562500,0
0.7535648345947266,0.3241098403930664,0
0.7577264785766601,0.3241098403930664,0
0.7533788681030273,0.3304979324340820,0
0.7441434860229492,0.3304979324340820,0
0.7509670257568359,0.3221757888793945,0
0.7641225814819336,0.3221757888793945,0
0.7581338882446289,0.3286428451538086,0
0.7476230621337890,0.3286428451538086,0
0.7513275146484375,0.3274251937866211,0
0.7578014373779297,0.3274251937866211,0
0.7576555252075196,0.3272375106811523,0
0.7622074127197266,0.3272375106811523,0
0.7585750579833984,0.3352243423461914,0
0.7504920959472656,0.3352243423461914,0
0.7576601028442382,0.3278491973876953,0
0.7720407485961914,0.3278491973876953,0
0.7665636062622070,0.3358709335327149,0
0.7571170806884765,0.3358709335327149,0
0.7617691040039062,0.3360694885253906,0
0.7689416885375976,0.3360694885253906,0
0.7694538116455077,0.3368436813354492,0
0.7744771957397460,0.3368436813354492,0
0.7704689025878906,0.3442600250244141,0
0.7617313385009765,0.3442600250244141,0
0.7686504364013672,0.3363115310668945,0
0.7819318771362305,0.3363115310668945,0
0.7756530761718750,0.3426298141479492,0
0.7648944854736328,0.3426298141479492,0
0.7681903839111328,0.3407049179077148,0
0.7739170074462890,0.3407049179077148,0
0.7734392166137695,0.3393081665039062,0
0.7766527175903321,0.3393081665039062,0
0.7721048355102539,0.3449747085571289,0
0.7621381759643554,0.3449747085571289,0
0.7682956695556641,0.3356843948364258,0
0.7807794570922851,0.3356843948364258,0
0.7739233016967774,0.3411558151245117,0
0.7628351211547851,0.3411558151245117,0
0.7659095764160156,0.3389081954956055,0
0.7715927124023437,0.3389081954956055,0
0.7710227966308594,0.3377843856811523,0
0.7747896194458007,0.3377843856811523,0
0.7705055236816406,0.3439001083374023,0
0.7610956192016601,0.3439001083374023,0
0.7676496505737305,0.3354824066162109,0
0.7807611465454102,0.3354824066162109,0
0.7745676040649414,0.3419282913208008,0
0.7634164810180664,0.3419282913208008,0
0.7675157546997070,0.3405223846435547,0
0.7739856719970702,0.3405223846435547,0
0.7737751007080078,0.3403478622436523,0
0.7781312942504882,0.3403478622436523,0
0.7741470336914062,0.3466621398925781,0
0.7654397964477538,0.3466621398925781,0
0.7723943710327148,0.3394237518310547,0
0.7859796524047852,0.3394237518310547,0
0.7800928115844726,0.3464298248291016,0
0.7697507858276367,0.3464298248291016,0
0.7737997055053710,0.3455961227416992,0
0.7805202484130859,0.3455961227416992,0
0.7803091049194336,0.3459554672241211,0
0.7850131988525391,0.3459554672241211,0
0.7812875747680664,0.3529844284057617,0
0.7728063583374023,0.3529844284057617,0
0.7797512054443360,0.3456178665161133,0
0.7933868408203125,0.3456178665161133,0
0.7877340316772461,0.3528717041015625,0
0.7774847030639648,0.3528717041015625,0
0.7816028594970703,0.3521907806396484,0
0.7884401321411133,0.3521907806396484,0
0.7883726119995117,0.3525661468505859,0
0.7930143356323242,0.3525661468505859,0
0.7893802642822265,0.3595876693725586,0
0.7807640075683594,0.3595876693725586,0
0.7882673263549804,0.3522668838500976,0
0.8013519287109375,0.3522668838500976,0
0.7953935623168945,0.3591957092285156,0
0.7851413726806641,0.3591957092285156,0
0.7891416549682617,0.3583013534545899,0
0.7957208633422851,0.3583013534545899,0
0.7952836990356446,0.3582275390625000,0
0.7995386123657227,0.3582275390625000,0
0.7959812164306640,0.3650711059570312,0
0.7871904373168945,0.3650711059570312,0
0.7937616348266602,0.3572999954223633,0
0.8072502136230468,0.3572999954223633,0
0.8013027191162109,0.3639535903930664,0
0.7905584335327148,0.3639535903930664,0
0.7942056655883789,0.3625316619873047,0
0.8005010604858398,0.3625316619873047,0
0.8002229690551758,0.3622718811035156,0
0.8037986755371094,0.3622718811035156,0
0.8001989364624024,0.3684860229492187,0
0.7911363601684570,0.3684860229492187,0
0.7977979660034179,0.3603366851806640,0
0.8108104705810547,0.3603366851806640,0
0.8047468185424804,0.3666458129882812,0
0.7936986923217774,0.3666458129882812,0
0.7972246170043945,0.3650138854980469,0
0.8035600662231445,0.3650138854980469,0
0.8029335021972656,0.3645996093750000,0
0.8068490982055664,0.3645996093750000,0
0.8029157638549804,0.3706569671630859,0
0.7939373016357422,0.3706569671630859,0
0.8004117965698242,0.3627902984619141,0
0.8136274337768554,0.3627902984619141,0
0.7968589782714843,0.3696407318115234,0
0.8032911300659179,0.3696407318115234,0
0.8003665924072265,0.3678480148315429,0
0.8070997238159180,0.3678480148315429,0
0.8065927505493163,0.3678091049194336,0
0.8108299255371093,0.3678091049194336,0
0.8070459365844727,0.3742893218994141,0
0.7984508514404297,0.3742893218994141,0
0.8050266265869140,0.3666160583496094,0
0.8183137893676757,0.3666160583496094,0
0.8124544143676757,0.3733926773071289,0
0.8017908096313476,0.3733926773071289,0
0.8052589416503906,0.3717830657958984,0
0.8122398376464843,0.3717830657958984,0
0.8117551803588867,0.3722299575805664,0
0.8089794158935547,0.3722299575805664,0
0.8121854782104492,0.3784549713134766,0
0.8030982971191406,0.3784549713134766,0
0.8094846725463867,0.3701356887817382,0
0.8223175048828125,0.3701356887817382,0
0.8150304794311524,0.3749839782714844,0
0.8020528793334961,0.3749839782714844,0
0.8036458969116210,0.3698026657104492,0
0.8065217971801758,0.3698026657104492,0
0.8026554107666015,0.3633258819580078,0
0.8010915756225586,0.3633258819580078,0
0.7929468154907227,0.3609643936157226,0
0.7780197143554687,0.3609643936157226,0
0.7804447174072265,0.3447944641113281,0
0.7877763748168946,0.3447944641113281,0
0.7778549194335938,0.3433685302734375,0
0.7614086151123046,0.3433685302734375,0
0.7620637893676757,0.3352706909179687,0
0.7642747879028320,0.3352706909179687,0
0.7613634109497071,0.3301786422729492,0
0.7618286132812500,0.3301786422729492,0
0.7560407638549804,0.3320652008056640,0
0.7446395874023437,0.3320652008056640,0
0.7492321014404296,0.3209547042846679,0
0.7601778030395507,0.3209547042846679,0
0.7529989242553711,0.3249160766601563,0
0.7405242919921875,0.3249160766601563,0
0.7435111999511719,0.3215509414672851,0
0.7486948013305664,0.3215509414672851,0
0.7478473663330077,0.3202589035034180,0
0.7510105133056640,0.3202589035034180,0
0.7467435836791992,0.3251901626586914,0
0.7372844696044921,0.3251901626586914,0
0.7437000274658203,0.3167535781860352,0
0.7563915252685547,0.3167535781860352,0
0.7498821258544922,0.3225002288818359,0
0.7383882522583007,0.3225002288818359,0
0.7419507980346679,0.3203561782836914,0
0.7480024337768555,0.3203561782836914,0
0.7473701477050781,0.3197364807128906,0
0.7508880615234375,0.3197364807128906,0
0.7469495773315430,0.3252605438232422,0
0.7379173278808594,0.3252605438232422,0
0.7442504882812500,0.3170677185058594,0
0.7571508407592773,0.3170677185058594,0
0.7509149551391602,0.3231513977050781,0
0.7395647048950195,0.3231513977050781,0
0.7430551528930663,0.3212928771972656,0
0.7496417999267578,0.3212928771972656,0
0.7492904663085938,0.3212322235107422,0
0.7531431198120117,0.3212322235107422,0
0.7496252059936523,0.3272855758666992,0
0.7414506912231446,0.3272855758666992,0
0.7484441757202148,0.3204505920410156,0
0.7622611999511718,0.3204505920410156,0
0.7567537307739257,0.3280168533325195,0
0.7464191436767578,0.3280168533325195,0
0.7507495880126953,0.3278028488159180,0
0.7587038040161133,0.3278028488159180,0
0.7583404541015625,0.3286605834960937,0
0.7626623153686524,0.3286605834960937,0
0.7595575332641601,0.3351242065429688,0
0.7514139175415039,0.3351242065429688,0
0.7581544876098633,0.3280197143554687,0
0.7713191986083984,0.3280197143554687,0
0.7654930114746094,0.3333755493164062,0
0.7537857055664062,0.3333755493164062,0
0.7574615478515625,0.3324102401733398,0
0.7637609481811524,0.3324102401733398,0
0.7627973556518555,0.3318082809448242,0
0.7659587860107422,0.3318082809448242,0
0.7618703842163086,0.3366411209106445,0
0.7525817871093750,0.3366411209106445,0
0.7585830688476562,0.3282068252563476,0
0.7708826065063477,0.3282068252563476,0
0.7647090911865234,0.3338172912597656,0
0.7529405593872071,0.3338172912597656,0
0.7561780929565429,0.3315244674682617,0
0.7625038146972656,0.3315244674682617,0
0.7615705490112304,0.3310106277465820,0
0.7649557113647460,0.3310106277465820,0
0.7613651275634765,0.3367635726928711,0
0.7527769088745117,0.3367635726928711,0
0.7590219497680664,0.3285902023315430,0
0.7719560623168945,0.3285902023315430,0
0.7660348892211913,0.3350160598754883,0
0.7548408508300781,0.3350160598754883,0
0.7586231231689453,0.3336828231811523,0
0.7645105361938477,0.3336828231811523,0
0.7649568557739258,0.3339620590209961,0
0.7688838958740234,0.3339620590209961,0
0.7658037185668946,0.3399993896484375,0
0.7574569702148437,0.3399993896484375,0
0.7642072677612305,0.3329927444458008,0
0.7776145935058594,0.3329927444458008,0
0.7718090057373047,0.3400400161743164,0
0.7610286712646485,0.3400400161743164,0
0.7650838851928711,0.3390432357788086,0
0.7722581863403321,0.3390432357788086,0
0.7725643157958985,0.3398265838623047,0
0.7763534545898437,0.3398265838623047,0
0.7732154846191406,0.3461551666259766,0
0.7651250839233398,0.3461551666259766,0
0.7720813751220703,0.3395250320434570,0
0.7856689453125000,0.3395250320434570,0
0.7798095703125000,0.3466724395751953,0
0.7691333770751952,0.3466724395751953,0
0.7731920242309570,0.3457660675048828,0
0.7805288314819335,0.3457660675048828,0
0.7801763534545898,0.3464572906494141,0
0.7842573165893555,0.3464572906494141,0
0.7850950241088867,0.3401355743408203,0
0.7795927047729492,0.3557086944580078,0
0.7872997283935547,0.3495729446411133,0
0.7872997283935547,0.3390747070312500,0
0.7828371047973632,0.3476428985595703,0
0.7918258666992187,0.3476428985595703,0
0.7862497329711914,0.3559438705444336,0
0.7735158920288085,0.3559438705444336,0
0.7839809417724609,0.3500719070434570,0
0.7952327728271484,0.3500719070434570,0
0.7909057617187499,0.3537059783935547,0
0.7861621856689452,0.3537059783935547,0
0.7871046066284180,0.3542175292968750,0
0.7856306076049805,0.3542175292968750,0
0.7878913879394531,0.3515962600708007,0
0.7966426849365235,0.3515962600708007,0
0.7906408309936523,0.3595544815063477,0
0.7773771286010742,0.3595544815063477,0
0.7876579284667968,0.3536453247070312,0
0.7984176635742187,0.3536453247070312,0
0.7946908950805663,0.3567203521728515,0
0.7897407531738281,0.3567203521728515,0
0.7901773452758789,0.3567369461059570,0
0.7888481140136718,0.3567369461059570,0
0.7909040451049805,0.3542295455932617,0
0.7997732162475586,0.3542295455932617,0
0.7937009811401367,0.3621511459350586,0
0.7808835983276367,0.3621511459350586,0
0.7906974792480469,0.3562047958374023,0
0.8015264511108399,0.3562047958374023,0
0.7978723526000976,0.3594921112060547,0
0.7929668426513672,0.3594921112060547,0
0.7932718276977538,0.3596111297607422,0
0.7923156738281250,0.3596111297607422,0
0.7947080612182617,0.3574790954589844,0
0.8027246475219726,0.3574790954589844,0
0.7977996826171875,0.3656198501586914,0
0.7849771499633789,0.3656198501586914,0
0.7949352264404297,0.3600242614746094,0
0.8063438415527343,0.3600242614746094,0
0.8027011871337890,0.3635364532470703,0
0.7979816436767578,0.3635364532470703,0
0.7985624313354492,0.3640308380126953,0
0.7975215911865234,0.3640308380126953,0
0.7999855041503906,0.3619474411010742,0
0.8089611053466796,0.3619474411010742,0
0.8032299041748047,0.3702220916748047,0
0.7902894973754883,0.3702220916748047,0
0.8011035919189453,0.3646213531494141,0
0.8120138168334960,0.3646213531494141,0
0.8078075408935547,0.3675848007202148,0
0.8025861740112304,0.3675848007202148,0
0.8023790359497071,0.3668981552124023,0
0.8000736236572266,0.3668981552124023,0
0.8009582519531250,0.3609077453613281,0
0.8070276260375976,0.3609077453613281,0
0.7986093521118164,0.3654705047607422,0
0.7814334869384766,0.3654705047607422,0
0.7875068664550781,0.3524934768676758,0
0.7931047439575195,0.3524934768676758,0
0.7853513717651367,0.3478099822998047,0
0.7750293731689453,0.3478099822998047,0
0.7713792800903320,0.3402717590332031,0
0.7649906158447265,0.3402717590332031,0
0.7637277603149414,0.3311119079589844,0
0.7678550720214844,0.3311119079589844,0
0.7594076156616211,0.3337331771850586,0
0.7428503036499023,0.3337331771850586,0
0.7509521484375000,0.3237224578857422,0
0.7590145111083985,0.3237224578857422,0
0.7536701202392578,0.3233940124511719,0
0.7464443206787109,0.3233940124511719,0
0.7453462600708007,0.3207458496093750,0
0.7429510116577148,0.3207458496093750,0
0.7439231872558594,0.3164823532104492,0
0.7514213562011719,0.3164823532104492,0
0.7449737548828125,0.3229219436645508,0
0.7311183929443359,0.3229219436645508,0
0.7406616210937500,0.3161149978637695,0
0.7508857727050781,0.3161149978637695,0
0.7468826293945312,0.3185359954833984,0
0.7412492752075195,0.3185359954833984,0
0.7415639877319335,0.3181039810180664,0
0.7402702331542969,0.3181039810180664,0
0.7423570632934570,0.3153579711914062,0
0.7507987976074219,0.3153579711914062,0
0.7447460174560546,0.3229013442993164,0
0.7317289352416992,0.3229013442993164,0
0.7414598464965820,0.3167781829833984,0
0.7522413253784179,0.3167781829833984,0
0.7485094070434570,0.3197816848754882,0
0.7433429718017578,0.3197816848754882,0
0.7437206268310547,0.3195596694946289,0
0.7424880981445312,0.3195596694946289,0
0.7446115493774413,0.3171541213989258,0
0.7533222198486328,0.3171541213989258,0
0.7476087570190429,0.3252416610717773,0
0.7355283737182617,0.3252416610717773,0
0.7453794479370117,0.3200609207153320,0
0.7570707321166992,0.3200609207153320,0
0.7540248870849610,0.3242877960205078,0
0.7499193191528321,0.3242877960205078,0
0.7511278152465820,0.3257497787475586,0
0.7508794784545898,0.3257497787475586,0
0.7538961410522461,0.3247003555297852,0
0.7634857177734374,0.3247003555297852,0
0.7581270217895507,0.3338047027587890,0
0.7460723876953125,0.3338047027587890,0
0.7563720703125000,0.3286994934082031,0
0.7680118560791015,0.3286994934082031,0
0.7647045135498046,0.3324359893798828,0
0.7596296310424805,0.3324359893798828,0
0.7599300384521485,0.3323896408081055,0
0.7587959289550781,0.3323896408081055,0
0.7610189437866210,0.3297924041748047,0
0.7689811706542968,0.3297924041748047,0
0.7626714706420898,0.3369935989379882,0
0.7492326736450196,0.3369935989379882,0
0.7588096618652344,0.3302186965942382,0
0.7693176269531250,0.3302186965942382,0
0.7655141830444335,0.3326374053955078,0
0.7593904495239258,0.3326374053955078,0
0.7593235015869141,0.3319358825683594,0
0.7579027175903320,0.3319358825683594,0
0.7595489501953124,0.3288860321044922,0
0.7676897048950195,0.3288860321044922,0
0.7615173339843749,0.3363046646118164,0
0.7484962463378906,0.3363046646118164,0
0.7581413269042968,0.3301671981811523,0
0.7695533752441406,0.3301671981811523,0
0.7656297683715820,0.3332462310791016,0
0.7602453231811523,0.3332462310791016,0
0.7607276916503906,0.3323123931884766,0
0.7599380493164062,0.3323123931884766,0
0.7619853973388672,0.3310157775878906,0
0.7706148147583007,0.3310157775878906,0
0.7648023605346680,0.3391130447387695,0
0.7522996902465821,0.3391130447387695,0
0.7623699188232421,0.3336765289306641,0
0.7738626480102538,0.3336765289306641,0
0.7704832077026367,0.3373735427856445,0
0.7653614044189453,0.3373735427856445,0
0.7661390304565430,0.3377706527709961,0
0.7657796859741210,0.3377706527709961,0
0.7676050186157226,0.3365249633789062,0
0.7767145156860351,0.3365249633789062,0
0.7712774276733398,0.3447372436523438,0
0.7591478347778320,0.3447372436523438,0
0.7693479537963867,0.3394580841064453,0
0.7810352325439452,0.3394580841064453,0
0.7777954101562500,0.3435848236083984,0
0.7731971740722656,0.3435848236083984,0
0.7740142822265624,0.3442451477050781,0
0.7735748291015625,0.3442451477050781,0
0.7759351730346680,0.3427190780639648,0
0.7850790023803711,0.3427190780639648,0
0.7795881271362305,0.3512626647949219,0
0.7670848846435546,0.3512626647949219,0
0.7772506713867188,0.3459159851074219,0
0.7887834548950196,0.3459159851074219,0
0.7855865478515625,0.3498601913452148,0
0.7806850433349609,0.3498601913452148,0
0.7814804077148437,0.3503459930419922,0
0.7807771682739257,0.3503459930419922,0
0.7828725814819336,0.3484542846679687,0
0.7916461944580078,0.3484542846679687,0
0.7861547470092773,0.3566539764404297,0
0.7734140396118164,0.3566539764404297,0
0.7834590911865235,0.3514291763305664,0
0.7947624206542968,0.3514291763305664,0
0.7912639617919922,0.3546632766723632,0
0.7861433029174805,0.3546632766723632,0
0.7868047714233398,0.3546741485595703,0
0.7859704971313476,0.3546741485595703,0
0.7877065658569335,0.3523504257202149,0
0.7961637496948242,0.3523504257202149,0
0.7902214050292968,0.3602697372436524,0
0.7775751113891601,0.3602697372436524,0
0.7863933563232421,0.3541477203369141,0
0.7982872009277343,0.3541477203369141,0
0.7947406768798828,0.3574172973632813,0
0.7892715454101562,0.3574172973632813,0
0.7897499084472656,0.3571128845214844,0
0.7889156341552734,0.3571128845214844,0
0.7907255172729492,0.3547033309936523,0
0.7990207672119141,0.3547033309936523,0
0.7930114746093749,0.3624835968017578,0
0.7803628921508788,0.3624835968017578,0
0.7900949478149414,0.3565830230712890,0
0.8011837005615234,0.3565830230712890,0
0.7976703643798828,0.3598108291625977,0
0.7924032211303711,0.3598108291625977,0
0.7916873931884766,0.3598348617553711,0
0.7915792465209961,0.3598348617553711,0
0.7939905166625977,0.3576124191284180,0
0.8026216506958007,0.3576124191284180,0
0.7970649719238281,0.3657537460327148,0
0.7841228485107422,0.3657537460327148,0
0.7940534591674805,0.3602233886718750,0
0.8053024291992187,0.3602233886718750,0
0.8021003723144531,0.3638345718383789,0
0.7971130371093750,0.3638345718383789,0
0.7977275848388672,0.3640531539916992,0
0.7972251892089843,0.3640531539916992,0
0.7989744186401367,0.3623102188110351,0
0.8073520660400391,0.3623102188110351,0
0.8016889572143554,0.3700086593627930,0
0.7889230728149413,0.3700086593627930,0
0.7991912841796874,0.3640611648559570,0
0.8102806091308593,0.3640611648559570,0
0.8064296722412109,0.3672586441040039,0
0.8004415512084960,0.3672586441040039,0
0.8004981994628906,0.3658973693847656,0
0.7983129501342773,0.3658973693847656,0
0.7982002258300781,0.3607006072998047,0
0.8036647796630859,0.3607006072998047,0
0.7951818466186523,0.3621534347534179,0
0.7776082992553711,0.3621534347534179,0
0.7836633682250976,0.3501371383666992,0
0.7895347595214843,0.3501371383666992,0
0.7819931030273437,0.3460247039794922,0
0.7714427947998047,0.3460247039794922,0
0.7684679031372070,0.3387651443481445,0
0.7629152297973633,0.3387651443481445,0
0.7616809844970703,0.3302999496459961,0
0.7659296035766602,0.3302999496459961,0
0.7578552246093749,0.3334093093872070,0
0.7419742584228516,0.3334093093872070,0
0.7498872756958007,0.3239192962646484,0
0.7588909149169921,0.3239192962646484,0
0.7539264678955078,0.3244428634643555,0
0.7463682174682617,0.3244428634643555,0
0.7458080291748047,0.3219720840454102,0
0.7438642501831054,0.3219720840454102,0
0.7449234008789062,0.3182332992553711,0
0.7524621963500976,0.3182332992553711,0
0.7463682174682617,0.3250144958496093,0
0.7329397201538086,0.3250144958496093,0
0.7424921035766602,0.3184576034545898,0
0.7532175064086913,0.3184576034545898,0
0.7491188049316406,0.3219440460205078,0
0.7436359405517577,0.3219440460205078,0
0.7505647659301757,0.3241630554199219,0
0.7390760421752930,0.3241630554199219,0
0.7421430587768555,0.3228321075439453,0
0.7498626708984375,0.3228321075439453,0
0.7488927841186523,0.3225362777709961,0
0.7518745422363281,0.3225362777709961,0
0.7493591308593750,0.3276718139648437,0
0.7415027618408203,0.3276718139648437,0
0.7479463577270508,0.3217254638671875,0
0.7619230270385742,0.3217254638671875,0
0.7562736511230469,0.3287881851196289,0
0.7448678970336914,0.3287881851196289,0
0.7493459701538085,0.3280271530151367,0
0.7579833984375000,0.3280271530151367,0
0.7580337524414062,0.3302146911621094,0
0.7621788024902344,0.3302146911621094,0
0.7604444503784179,0.3369575500488281,0
0.7539813995361327,0.3369575500488281,0
0.7606252670288086,0.3319553375244140,0
0.7746883392333984,0.3319553375244140,0
0.7697118759155274,0.3396469116210937,0
0.7584800720214844,0.3396469116210937,0
0.7625055313110352,0.3383148193359375,0
0.7702503204345703,0.3383148193359375,0
0.7693914413452149,0.3387903213500976,0
0.7719669342041016,0.3387903213500976,0
0.7689920425415039,0.3437656402587890,0
0.7611865997314453,0.3437656402587890,0
0.7661510467529297,0.3357461929321289,0
0.7781461715698242,0.3357461929321289,0
0.7719308853149414,0.3410465240478516,0
0.7589309692382812,0.3410465240478516,0
0.7618881225585937,0.3376230239868164,0
0.7683546066284179,0.3376230239868164,0
0.7671850204467773,0.3368373870849609,0
0.7688650131225586,0.3368373870849609,0
0.7658718109130859,0.3406648635864258,0
0.7572950363159180,0.3406648635864258,0
0.7628517150878906,0.3332679748535156,0
0.7750677108764649,0.3332679748535156,0
0.7694263458251953,0.3390953063964844,0
0.7566535949707031,0.3390953063964844,0
0.7602207183837890,0.3365180969238281,0
0.7677171707153320,0.3365180969238281,0
0.7666139602661133,0.3367670059204101,0
0.7687013626098632,0.3367670059204101,0
0.7658094406127930,0.3420118331909179,0
0.7587181091308594,0.3420118331909179,0
0.7647342681884766,0.3350658416748047,0
0.7777873992919921,0.3350658416748047,0
0.7722490310668945,0.3417938232421875,0
0.7603826522827148,0.3417938232421875,0
0.7641489028930664,0.3399398803710937,0
0.7719543457031249,0.3399398803710937,0
0.7713987350463867,0.3409423828125000,0
0.7744857788085937,0.3409423828125000,0
0.7765817642211914,0.3434080123901367,0
0.7842779159545898,0.3400920867919922,0
0.7788619995117188,0.3473442077636719,0
0.7674316406250000,0.3473442077636719,0
0.7713741302490235,0.3458227157592773,0
0.7794559478759765,0.3458227157592773,0
0.7788425445556640,0.3470998764038086,0
0.7820451736450195,0.3470998764038086,0
0.7797620773315429,0.3526542663574219,0
0.7725917816162109,0.3526542663574219,0
0.7787870407104492,0.3467508316040039,0
0.7922286987304688,0.3467508316040039,0
0.7869421005249023,0.3538209915161133,0
0.7752061843872070,0.3538209915161133,0
0.7790565490722656,0.3523515701293945,0
0.7872322082519531,0.3523515701293945,0
0.7865203857421875,0.3535898208618164,0
0.7896406173706054,0.3535898208618164,0
0.7873947143554687,0.3588455200195312,0
0.7798810958862304,0.3588455200195312,0
0.7859601974487305,0.3527206420898437,0
0.7994218826293945,0.3527206420898437,0
0.7936540603637695,0.3595996856689453,0
0.7816532135009765,0.3595996856689453,0
0.7856878280639649,0.3577674865722656,0
0.7934795379638672,0.3577674865722656,0
0.7925703048706054,0.3584615707397461,0
0.7954845428466797,0.3584615707397461,0
0.7930532455444336,0.3633796691894531,0
0.7852117538452148,0.3633796691894531,0
0.7910053253173828,0.3567100524902344,0
0.8038438796997071,0.3567100524902344,0
0.7982814788818359,0.3631416320800781,0
0.7859075546264648,0.3631416320800781,0
0.7894186019897461,0.3607246398925781,0
0.7969682693481445,0.3607246398925781,0
0.7959800720214844,0.3611028671264648,0
0.7984336853027344,0.3611028671264648,0
0.7957420349121094,0.3656856536865234,0
0.7878953933715820,0.3656856536865234,0
0.7935699462890625,0.3584970474243164,0
0.8064445495605469,0.3584970474243164,0
0.8008563995361327,0.3651821136474609,0
0.7883783340454101,0.3651821136474609,0
0.7919666290283203,0.3630105972290039,0
0.7996553421020508,0.3630105972290039,0
0.7987724304199219,0.3635679244995117,0
0.8015699386596680,0.3635679244995117,0
0.7990837097167969,0.3684556961059570,0
0.7911500930786133,0.3684556961059570,0
0.7969333648681640,0.3618902206420898,0
0.8101478576660156,0.3618902206420898,0
0.8044767379760742,0.3685489654541015,0
0.7923528671264648,0.3685489654541015,0
0.7964796066284180,0.3666921615600586,0
0.8045316696166992,0.3666921615600586,0
0.8034948348999024,0.3677827835083008,0
0.8066013336181640,0.3677827835083008,0
0.8043113708496094,0.3731174468994141,0
0.7970546722412110,0.3731174468994141,0
0.8029964447021484,0.3670944213867187,0
0.8163969039916992,0.3670944213867187,0
0.8110879898071289,0.3740484237670899,0
0.7990568161010742,0.3740484237670899,0
0.8027080535888672,0.3715101242065429,0
0.8101707458496094,0.3715101242065429,0
0.8089559555053710,0.3719896316528320,0
0.8106977462768554,0.3719896316528320,0
0.8070259094238281,0.3747247695922851,0
0.7971147537231446,0.3747247695922851,0
0.8005971908569336,0.3640949249267578,0
0.8099367141723632,0.3640949249267578,0
0.7914161682128906,0.3644731521606445,0
0.7914161682128906,0.3551473617553711,0
0.7914161682128906,0.3551473617553711,0
0.7843099594116211,0.3552726745605468,0
0.7725179672241210,0.3420661926269531,0
0.7793672561645507,0.3420661926269531,0
0.7724447250366211,0.3395702362060547,0
0.7627315521240234,0.3395702362060547,0
0.7610984802246094,0.3339443206787109,0
0.7571262359619141,0.3339443206787109,0
0.7567176818847656,0.3281427383422851,0
0.7624065399169921,0.3281427383422851,0
0.7549947738647461,0.3326986312866211,0
0.7404476165771484,0.3326986312866211,0
0.7489374160766601,0.3243209838867188,0
0.7590351104736328,0.3243209838867188,0
0.7545192718505859,0.3261205673217774,0
0.7476247787475586,0.3261205673217774,0
0.7462291717529297,0.3243650436401367,0
0.7458744049072266,0.3243650436401367,0
0.7474227905273437,0.3209140777587891,0
0.7545124053955078,0.3209140777587891,0
0.7484842300415039,0.3275653839111328,0
0.7353355407714843,0.3275653839111328,0
0.7446819305419922,0.3209690093994140,0
0.7557369232177734,0.3209690093994140,0
0.7517778396606445,0.3240606307983399,0
0.7454092025756835,0.3240606307983399,0
0.7458921432495117,0.3230192184448242,0
0.7452713012695312,0.3230192184448242,0
0.7463047027587890,0.3200546264648437,0
0.7539505004882813,0.3200546264648437,0
0.7478364944458008,0.3274080276489258,0
0.7347999572753906,0.3274080276489258,0
0.7444198608398437,0.3209363937377930,0
0.7561197280883789,0.3209363937377930,0
0.7523958206176757,0.3247301101684570,0
0.7468282699584960,0.3247301101684570,0
0.7479309082031250,0.3247879028320312,0
0.7483440399169922,0.3247879028320312,0
0.7504188537597656,0.3235914230346680,0
0.7592988967895508,0.3235914230346680,0
0.7542966842651367,0.3328617095947266,0
0.7425430297851562,0.3328617095947266,0
0.7529697418212891,0.3281513214111328,0
0.7655977249145508,0.3281513214111328,0
0.7623029708862304,0.3332599639892578,0
0.7576910018920898,0.3332599639892578,0
0.7589933395385742,0.3338012695312500,0
0.7594837188720703,0.3338012695312500,0
0.7613622665405273,0.3321144104003906,0
0.7697959899902344,0.3321144104003906,0
0.7639675140380859,0.3402128219604492,0
0.7510196685791015,0.3402128219604492,0
0.7604536056518555,0.3336496353149414,0
0.7717105865478515,0.3336496353149414,0
0.7676593780517578,0.3366456985473633,0
0.7610864639282227,0.3366456985473633,0
0.7613754272460938,0.3351711273193359,0
0.7603797912597656,0.3351711273193359,0
0.7608999252319336,0.3317447662353515,0
0.7682916641235351,0.3317447662353515,0
0.7617919921874999,0.3386163711547852,0
0.7484144210815430,0.3386163711547852,0
0.7575782775878906,0.3313499450683594,0
0.7688489913940429,0.3313499450683594,0
0.7648012161254882,0.3344072341918945,0
0.7582883834838867,0.3344072341918945,0
0.7587610244750976,0.3332983016967773,0
0.7582494735717773,0.3332983016967773,0
0.7592594146728515,0.3306055068969727,0
0.7669692993164062,0.3306055068969727,0
0.7614366531372070,0.3384286880493164,0
0.7484727859497070,0.3384286880493164,0
0.7581441879272460,0.3321207046508789,0
0.7700878143310547,0.3321207046508789,0
0.7663604736328125,0.3360631942749023,0
0.7605268478393554,0.3360631942749023,0
0.7616100311279297,0.3357238769531250,0
0.7615161895751953,0.3357238769531250,0
0.7630456924438477,0.3337732315063476,0
0.7714822769165038,0.3337732315063476,0
0.7659507751464844,0.3421091079711914,0
0.7533748626708984,0.3421091079711914,0
0.7633363723754882,0.3365295410156250,0
0.7755105972290038,0.3365295410156250,0
0.7720739364624023,0.3408754348754883,0
0.7665750503540039,0.3408754348754883,0
0.7678276062011719,0.3410659790039062,0
0.7682052612304687,0.3410659790039062,0
0.7699029922485351,0.3394575119018555,0
0.7785844802856445,0.3394575119018555,0
0.7731353759765625,0.3481767654418945,0
0.7602458953857422,0.3481767654418945,0
0.7706834793090820,0.3425090789794922,0
0.7832399368286133,0.3425090789794922,0
0.7797632217407227,0.3472023010253906,0
0.7743289947509765,0.3472023010253906,0
0.7754138946533203,0.3472320556640625,0
0.7755695343017578,0.3472320556640625,0
0.7771671295166015,0.3454668045043945,0
0.7853691101074218,0.3454668045043945,0
0.7798702239990234,0.3538393020629882,0
0.7675901412963867,0.3538393020629882,0
0.7773822784423828,0.3478494644165039,0
0.7894380569458007,0.3478494644165039,0
0.7858371734619141,0.3520414352416992,0
0.7797901153564453,0.3520414352416992,0
0.7809167861938476,0.3516809463500977,0
0.7806449890136719,0.3516809463500977,0
0.7821847915649414,0.3495838165283203,0
0.7903696060180664,0.3495838165283203,0
0.7846950531005860,0.3576953887939453,0
0.7718358993530273,0.3576953887939453,0
0.7818883895874024,0.3515464782714844,0
0.7937444686889649,0.3515464782714844,0
0.7900434494018554,0.3554615020751953,0
0.7839694976806640,0.3554615020751953,0
0.7849336624145508,0.3546844482421875,0
0.7845405578613281,0.3546844482421875,0
0.7863183975219726,0.3529088973999023,0
0.7943847656249999,0.3529088973999023,0
0.7884675979614257,0.3609964370727539,0
0.7757308959960937,0.3609964370727539,0
0.7854909896850586,0.3548967361450195,0
0.7974964141845703,0.3548967361450195,0
0.7938354492187499,0.3584976196289062,0
0.7875961303710938,0.3584976196289062,0
0.7884481430053710,0.3578350067138672,0
0.7879852294921875,0.3578350067138672,0
0.7886775970458985,0.3557773590087890,0
0.7964315414428711,0.3557773590087890,0
0.7909955978393555,0.3627359390258789,0
0.7774080276489258,0.3627359390258789,0
0.7866027832031249,0.3553413391113281,0
0.7969459533691406,0.3553413391113281,0
0.7909824371337890,0.3569635391235351,0
0.7829978942871093,0.3569635391235351,0
0.7820194244384765,0.3518091201782226,0
0.7781724929809570,0.3518091201782226,0
0.7764747619628906,0.3437891006469727,0
0.7797683715820313,0.3437891006469727,0
0.7710823059082031,0.3452648162841797,0
0.7532495498657227,0.3452648162841797,0
0.7596782684326172,0.3325527191162109,0
0.7669446945190429,0.3325527191162109,0
0.7603900909423827,0.3308246612548828,0
0.7507232666015625,0.3308246612548828,0
0.7493631362915039,0.3258945465087891,0
0.7462577819824219,0.3258945465087891,0
0.7458944320678711,0.3201581954956055,0
0.7515638351440429,0.3201581954956055,0
0.7444553375244141,0.3252874374389648,0
0.7299419403076172,0.3252874374389648,0
0.7383201599121093,0.3170425415039063,0
0.7489276885986328,0.3170425415039063,0
0.7446573257446288,0.3192626953125000,0
0.7377954483032226,0.3192626953125000,0
0.7380523681640625,0.3176925659179687,0
0.7371997833251953,0.3176925659179687,0
0.7380746841430664,0.3144321441650391,0
0.7455705642700196,0.3144321441650391,0
0.7398742675781250,0.3217054367065429,0
0.7263090133666992,0.3217054367065429,0
0.7356399536132813,0.3150100708007812,0
0.7472047805786133,0.3150100708007812,0
0.7429098129272461,0.3179420471191406,0
0.7374996185302735,0.3179420471191406,0
0.7377668380737304,0.3176616668701172,0
0.7373588562011718,0.3176616668701172,0
0.7389959335327149,0.3151290893554687,0
0.7469060897827148,0.3151290893554687,0
0.7412790298461914,0.3228784561157226,0
0.7283632278442382,0.3228784561157226,0
0.7380157470703125,0.3166482925415039,0
0.7497797012329102,0.3166482925415039,0
0.7463413238525390,0.3206748962402344,0
0.7407892227172851,0.3206748962402344,0
0.7416252136230469,0.3207710266113281,0
0.7424383163452148,0.3207710266113281,0
0.7442361831665039,0.3195608139038086,0
0.7532283782958984,0.3195608139038086,0
0.7481569290161133,0.3287956237792969,0
0.7365337371826172,0.3287956237792969,0
0.7470914840698242,0.3243301391601562,0
0.7602361679077149,0.3243301391601562,0
0.7568098068237304,0.3291486740112304,0
0.7515123367309570,0.3291486740112304,0
0.7528736114501953,0.3296390533447265,0
0.7533611297607422,0.3296390533447265,0
0.7546314239501953,0.3277565002441406,0
0.7627510070800781,0.3277565002441406,0
0.7571628570556640,0.3357215881347656,0
0.7445743560791015,0.3357215881347656,0
0.7539825439453125,0.3292551040649414,0
0.7651548385620117,0.3292551040649414,0
0.7613222122192382,0.3322443008422851,0
0.7550336837768554,0.3322443008422851,0
0.7548271179199219,0.3308446884155273,0
0.7541049957275391,0.3308446884155273,0
0.7548122406005859,0.3274160385131836,0
0.7622835159301757,0.3274160385131836,0
0.7560499191284179,0.3344278335571289,0
0.7424400329589843,0.3344278335571289,0
0.7518138885498047,0.3275905609130859,0
0.7630926132202148,0.3275905609130859,0
0.7591432571411133,0.3308143615722656,0
0.7528467178344727,0.3308143615722656,0
0.7536609649658202,0.3295783996582031,0
0.7534509658813476,0.3295783996582031,0
0.7547555923461914,0.3275493621826172,0
0.7626091003417969,0.3275493621826172,0
0.7570730209350586,0.3355659484863281,0
0.7441949844360352,0.3355659484863281,0
0.7538921356201171,0.3293701171875000,0
0.7658975601196288,0.3293701171875000,0
0.7623321533203125,0.3334316253662109,0
0.7564041137695312,0.3334316253662109,0
0.7575691223144531,0.3332891464233398,0
0.7577425003051758,0.3332891464233398,0
0.7593784332275391,0.3313985824584961,0
0.7676136016845703,0.3313985824584961,0
0.7621747970581054,0.3400085449218750,0
0.7498374938964844,0.3400085449218750,0
0.7597686767578125,0.3343259811401367,0
0.7720928192138672,0.3343259811401367,0
0.7694028854370117,0.3389482498168945,0
0.7632305145263671,0.3356328964233398,0
0.7767431259155273,0.3430263519287109,0
0.7595363616943359,0.3430263519287109,0
0.7635869979858398,0.3413206100463867,0
0.7722141265869140,0.3413206100463867,0
0.7714159011840820,0.3428403854370117,0
0.7743295669555664,0.3428403854370117,0
0.7723749160766601,0.3483753204345703,0
0.7654792785644531,0.3483753204345703,0
0.7715761184692382,0.3431127548217773,0
0.7849857330322265,0.3431127548217773,0
0.7799531936645507,0.3499408721923828,0
0.7677234649658203,0.3499408721923828,0
0.7718170166015624,0.3479496002197265,0
0.7801769256591796,0.3479496002197265,0
0.7792745590209961,0.3491678237915039,0
0.7818763732910156,0.3491678237915039,0
0.7798793792724609,0.3542324066162109,0
0.7723955154418946,0.3542324066162109,0
0.7781942367553710,0.3479942321777343,0
0.7914127349853516,0.3479942321777343,0
0.7859207153320312,0.3547279357910156,0
0.7733728408813476,0.3547279357910156,0
0.7771986007690429,0.3523464202880859,0
0.7851133346557617,0.3523464202880859,0
0.7841108322143554,0.3530324935913086,0
0.7863475799560546,0.3530324935913086,0
0.7838756561279296,0.3576427459716797,0
0.7764181137084961,0.3576427459716797,0
0.7821527481079101,0.3511859893798828,0
0.7950731277465820,0.3511859893798828,0
0.7897974014282226,0.3578813552856445,0
0.7771179199218750,0.3578813552856445,0
0.7808481216430664,0.3554374694824219,0
0.7887937545776367,0.3554374694824219,0
0.7883548736572266,0.3562477111816406,0
0.7903358459472656,0.3562477111816406,0
0.7880195617675781,0.3610319137573242,0
0.7804012298583984,0.3610319137573242,0
0.7858566284179688,0.3546003341674804,0
0.7990894317626953,0.3546003341674804,0
0.7937742233276367,0.3612602233886719,0
0.7808996200561523,0.3612602233886719,0
0.7846195220947265,0.3585554122924804,0
0.7925416946411132,0.3585554122924804,0
0.7915237426757812,0.3593393325805664,0
0.7935819625854492,0.3593393325805664,0
0.7910465240478516,0.3637075424194336,0
0.7832656860351562,0.3637075424194336,0
0.7886632919311524,0.3565635681152344,0
0.8011018753051757,0.3565635681152344,0
0.7946353912353515,0.3614942550659180,0
0.7800636291503906,0.3614942550659180,0
0.7816892623901367,0.3553722381591797,0
0.7863733291625976,0.3553722381591797,0
0.7822008132934570,0.3505640029907227,0
0.7798599243164063,0.3505640029907227,0
0.7736566543579101,0.3480726242065429,0
0.7607980728149414,0.3480726242065429,0
0.7628231048583984,0.3342710494995117,0
0.7705278396606445,0.3342710494995117,0
0.7616535186767578,0.3339694976806640,0
0.7443311691284179,0.3339694976806640,0
0.7452495574951171,0.3259637832641601,0
0.7493665695190429,0.3259637832641601,0
0.7456947326660156,0.3225225448608398,0
0.7451934814453125,0.3225225448608398,0
0.7416767120361328,0.3233980178833007,0
0.7317197799682617,0.3233980178833007,0
0.7359306335449218,0.3142507553100586,0
0.7471910476684570,0.3142507553100586,0
0.7405437469482422,0.3187351226806641,0
0.7269441604614257,0.3187351226806641,0
0.7298097610473633,0.3146942138671875,0
0.7366853713989258,0.3146942138671875,0
0.7350334167480469,0.3142879486083984,0
0.7369016647338867,0.3142879486083984,0
0.7342208862304688,0.3179443359375000,0
0.7259988784790039,0.3179443359375000,0
0.7313535690307617,0.3108999252319336,0
0.7439432144165039,0.3108999252319336,0
0.7381359100341797,0.3168531417846679,0
0.7252475738525390,0.3168531417846679,0
0.7286144256591797,0.3138502120971680,0
0.7364101409912109,0.3138502120971680,0
0.7352611541748046,0.3143743515014648,0
0.7371431350708008,0.3143743515014648,0
0.7348417282104492,0.3188581466674805,0
0.7274024963378906,0.3188581466674805,0
0.7327898025512695,0.3118011474609375,0
0.7454893112182617,0.3118011474609375,0
0.7398571014404297,0.3182012557983399,0
0.7273492813110352,0.3182012557983399,0
0.7310251235961914,0.3155719757080078,0
0.7389673233032227,0.3155719757080078,0
0.7382841110229492,0.3167329788208008,0
0.7408035278320312,0.3167329788208008,0
0.7392826080322266,0.3220979690551758,0
0.7325523376464843,0.3220979690551758,0
0.7387825012207031,0.3168010711669922,0
0.7525011062622070,0.3168010711669922,0
0.7478467941284179,0.3245521545410156,0
0.7360908508300781,0.3245521545410156,0
0.7391693115234375,0.3229190826416016,0
0.7482484817504883,0.3229190826416016,0
0.7480264663696289,0.3245532989501953,0
0.7508783340454102,0.3245532989501953,0
0.7496835708618164,0.3296934127807617,0
0.7418815612792968,0.3296934127807617,0
0.7470165252685547,0.3231027603149414,0
0.7597721099853515,0.3231027603149414,0
0.7543006896972656,0.3293117523193359,0
0.7487171173095702,0.3293117523193359,0
0.7445234298706055,0.3260278701782227,0
0.7519615173339843,0.3260278701782227,0
0.7504114151000977,0.3260547637939453,0
0.7521343231201172,0.3260547637939453,0
0.7501996994018555,0.3297122955322265,0
0.7419599533081055,0.3297122955322265,0
0.7460815429687500,0.3225408554077148,0
0.7587650299072265,0.3225408554077148,0
0.7533645629882812,0.3285821914672851,0
0.7401735305786132,0.3285821914672851,0
0.7435913085937500,0.3256061553955078,0
0.7512868881225586,0.3256061553955078,0
0.7501693725585937,0.3260868072509766,0
0.7521623611450196,0.3260868072509766,0
0.7500480651855469,0.3305059432983398,0
0.7425069808959961,0.3305059432983398,0
0.7482112884521485,0.3241350173950195,0
0.7610910415649413,0.3241350173950195,0
0.7557907104492188,0.3307153701782227,0
0.7432703018188477,0.3307153701782227,0
0.7471761703491211,0.3283573150634765,0
0.7551727294921875,0.3283573150634765,0
0.7545215606689453,0.3290685653686523,0
0.7569168090820312,0.3290685653686523,0
0.7549667358398438,0.3346109390258789,0
0.7478038787841796,0.3346109390258789,0
0.7538143157958984,0.3288940429687500,0
0.7672428131103516,0.3288940429687500,0
0.7622182846069335,0.3360363006591797,0
0.7493082046508789,0.3360363006591797,0
0.7538537979125977,0.3340124130249023,0
0.7623161315917969,0.3340124130249023,0
0.7617261886596679,0.3355676651000977,0
0.7643463134765625,0.3355676651000977,0
0.7627481460571289,0.3408588409423828,0
0.7556184768676758,0.3408588409423828,0
0.7617067337036133,0.3354000091552734,0
0.7751993179321289,0.3354000091552734,0
0.7702589035034180,0.3425891876220703,0
0.7581127166748046,0.3425891876220703,0
0.7621078491210938,0.3407358169555664,0
0.7707080841064453,0.3407358169555664,0
0.7699058532714843,0.3422985076904297,0
0.7724086761474609,0.3422985076904297,0
0.7706285476684570,0.3474346160888672,0
0.7634479522705078,0.3474346160888672,0
0.7693599700927735,0.3417217254638672,0
0.7827421188354492,0.3417217254638672,0
0.7776906967163085,0.3486516952514648,0
0.7652784347534179,0.3486516952514648,0
0.7691305160522460,0.3463268280029297,0
0.7772140502929688,0.3463268280029297,0
0.7761966705322265,0.3473825454711914,0
0.7785381317138672,0.3473825454711914,0
0.7764467239379883,0.3519847869873047,0
0.7689622879028321,0.3519847869873047,0
0.7743576049804687,0.3458255767822265,0
0.7875532150268555,0.3458255767822265,0
0.7822843551635742,0.3517461776733398,0
0.7695734024047851,0.3517461776733398,0
0.7730924606323242,0.3496164321899414,0
0.7811050415039062,0.3496164321899414,0
0.7799520492553711,0.3504055023193359,0
0.7820846557617187,0.3504055023193359,0
0.7797735214233398,0.3549253463745117,0
0.7725225448608398,0.3549253463745117,0
0.7780317306518555,0.3487054824829102,0
0.7908937454223632,0.3487054824829102,0
0.7855510711669922,0.3551290512084961,0
0.7728149414062500,0.3551290512084961,0
0.7768066406249999,0.3526960372924804,0
0.7846847534179687,0.3526960372924804,0
0.7838768005371094,0.3538043975830078,0
0.7860574722290039,0.3538043975830078,0
0.7842693328857422,0.3585096359252929,0
0.7768959045410156,0.3585096359252929,0
0.7824531555175781,0.3525455474853516,0
0.7955429077148437,0.3525455474853516,0
0.7905143737792969,0.3592643737792969,0
0.7779047012329101,0.3592643737792969,0
0.7817155838012695,0.3568588256835937,0
0.7897527694702148,0.3568588256835937,0
0.7886793136596679,0.3571987152099609,0
0.7908393859863281,0.3571987152099609,0
0.7889310836791992,0.3623136520385742,0
0.7812807083129882,0.3623136520385742,0
0.7866582870483398,0.3558969497680664,0
0.7993555068969727,0.3558969497680664,0
0.7936111450195312,0.3617694854736328,0
0.7797821044921874,0.3617694854736328,0
0.7822214126586914,0.3568811416625977,0
0.7880596160888672,0.3568811416625977,0
0.7847419738769531,0.3535337448120117,0
0.7829618453979492,0.3535337448120117,0
0.7773141860961914,0.3517736434936523,0
0.7648241043090820,0.3517736434936523,0
0.7664674758911133,0.3380413055419922,0
0.7735181808471679,0.3380413055419922,0
0.7649871826171875,0.3371492385864258,0
0.7472379684448242,0.3371492385864258,0
0.7474096298217773,0.3278377532958984,0
0.7506717681884766,0.3278377532958984,0
0.7471584320068360,0.3236686706542969,0
0.7459653854370117,0.3236686706542969,0
0.7418197631835938,0.3241539001464844,0
0.7317787170410156,0.3241539001464844,0
0.7352674484252929,0.3145437240600586,0
0.7460912704467774,0.3145437240600586,0
0.7397821426391601,0.3184507369995117,0
0.7254014968872070,0.3184507369995117,0
0.7281829833984375,0.3139297485351563,0
0.7349676132202149,0.3139297485351563,0
0.7333293914794922,0.3136299133300781,0
0.7345619201660156,0.3136299133300781,0
0.7323440551757813,0.3170722961425781,0
0.7244705200195313,0.3170722961425781,0
0.7294601440429688,0.3102802276611328,0
0.7421567916870117,0.3102802276611328,0
0.7367769241333008,0.3165876388549805,0
0.7242250442504883,0.3165876388549805,0
0.7271198272705078,0.3131446838378906,0
0.7350185394287109,0.3131446838378906,0
0.7338827133178710,0.3138868331909180,0
0.7357360839843750,0.3138868331909180,0
0.7337327957153320,0.3181114196777344,0
0.7261253356933594,0.3181114196777344,0
0.7316293716430664,0.3119476318359375,0
0.7446281433105468,0.3119476318359375,0
0.7394903182983398,0.3182064056396484,0
0.7267999649047852,0.3182064056396484,0
0.7306743621826172,0.3160892486572265,0
0.7391361236572266,0.3160892486572265,0
0.7381227493286132,0.3173583984375000,0
0.7406822204589844,0.3173583984375000,0
0.7394119262695312,0.3228578567504883,0
0.7329671859741210,0.3228578567504883,0
0.7391384124755859,0.3180736541748047,0
0.7529497146606445,0.3180736541748047,0
0.7486581802368164,0.3259574890136719,0
0.7368684768676758,0.3259574890136719,0
0.7414192199707031,0.3244405746459961,0
0.7500932693481445,0.3244405746459961,0
0.7496068954467773,0.3267236709594726,0
0.7526676177978515,0.3267236709594726,0
0.7503192901611327,0.3312297821044922,0
0.7432250976562500,0.3312297821044922,0
0.7484436035156250,0.3250831604003906,0
0.7610464096069336,0.3250831604003906,0
0.7558576583862304,0.3311559677124024,0
0.7426780700683594,0.3311559677124024,0
0.7461061477661133,0.3276031494140625,0
0.7531122207641602,0.3276031494140625,0
0.7515089035034179,0.3277387619018555,0
0.7529731750488281,0.3277387619018555,0
0.7504383087158203,0.3311084747314453,0
0.7425264358520508,0.3311084747314453,0
0.7475177764892578,0.3244102478027344,0
0.7597583770751953,0.3244102478027344,0
0.7543035507202148,0.3299016952514648,0
0.7411153793334960,0.3299016952514648,0
0.7444169998168945,0.3266326904296875,0
0.7520450592041016,0.3266326904296875,0
0.7507226943969726,0.3271717071533203,0
0.7523752212524414,0.3271717071533203,0
0.7503959655761718,0.3313745498657226,0
0.7430963516235352,0.3313745498657226,0
0.7485597610473632,0.3257406234741211,0
0.7616586685180664,0.3257406234741211,0
0.7563091278076172,0.3316761016845703,0
0.7436908721923828,0.3316761016845703,0
0.7472225189208984,0.3292259216308593,0
0.7554136276245117,0.3292259216308593,0
0.7545656204223633,0.3305179595947266,0
0.7565443038940429,0.3305179595947266,0
0.7552602767944335,0.3352827072143554,0
0.7480648040771484,0.3352827072143554,0
0.7539344787597656,0.3298130035400391,0
0.7669984817504882,0.3298130035400391,0
0.7622165679931641,0.3367835998535156,0
0.7500125885009765,0.3367835998535156,0
0.7541067123413085,0.3347145080566406,0
0.7624128341674804,0.3347145080566406,0
0.7616895675659180,0.3363578796386719,0
0.7641145706176757,0.3363578796386719,0
0.7626577377319336,0.3414390563964844,0
0.7565425872802735,0.3414390563964844,0
0.7615316390991210,0.3392417907714844,0
0.7650466918945312,0.3419403076171875,0
0.7650466918945312,0.3376058578491211,0
0.7663902282714844,0.3460493087768555,0
0.7552556991577148,0.3460493087768555,0
0.7652996063232421,0.3405103683471680,0
0.7780357360839844,0.3405103683471680,0
0.7746643066406250,0.3452018737792968,0
0.7687305450439453,0.3452018737792968,0
0.7702486038208007,0.3451354980468750,0
0.7708974838256836,0.3451354980468750,0
0.7718130111694336,0.3430784225463867,0
0.7797489166259766,0.3430784225463867,0
0.7743913650512695,0.3513896942138672,0
0.7619699478149414,0.3513896942138672,0
0.7714044570922851,0.3453529357910156,0
0.7834705352783203,0.3453529357910156,0
0.7800870895385742,0.3495946884155273,0
0.7751443862915038,0.3488662719726562,0
0.7758945465087891,0.3461311340332031,0
0.7834035873413085,0.3461311340332031,0
0.7778543472290039,0.3541391372680664,0
0.7652154922485351,0.3541391372680664,0
0.7743261337280273,0.3477230072021484,0
0.7863910675048827,0.3477230072021484,0
0.7825698852539062,0.3519012451171875,0
0.7762292861938477,0.3519012451171875,0
0.7773914337158203,0.3511024475097656,0
0.7779539108276367,0.3511024475097656,0
0.7786365509033203,0.3485589981079101,0
0.7861129760742187,0.3485589981079101,0
0.7805957794189453,0.3565206527709961,0
0.7681039810180664,0.3565206527709961,0
0.7773164749145508,0.3503780364990234,0
0.7894552230834960,0.3503780364990234,0
0.7860694885253906,0.3547725677490234,0
0.7797214508056640,0.3547725677490234,0
0.7808355331420899,0.3541637420654297,0
0.7815685272216797,0.3541637420654297,0
0.7825275421142578,0.3519905090332031,0
0.7902465820312500,0.3519905090332031,0
0.7848272323608398,0.3601661682128906,0
0.7724990844726562,0.3601661682128906,0
0.7818620681762695,0.3544870376586914,0
0.7940969467163086,0.3544870376586914,0
0.7908617019653320,0.3585708618164062,0
0.7844690322875977,0.3585708618164062,0
0.7855842590332031,0.3580118179321289,0
0.7862085342407227,0.3580118179321289,0
0.7868162155151367,0.3555725097656250,0
0.7944128036499023,0.3555725097656250,0
0.7887462615966797,0.3632743835449219,0
0.7757606506347656,0.3632743835449219,0
0.7844387054443359,0.3560056686401367,0
0.7954879760742187,0.3560056686401367,0
0.7907644271850586,0.3591058731079101,0
0.7817790985107421,0.3591058731079101,0
0.7800636291503906,0.3527669906616211,0
0.7771751403808593,0.3527669906616211,0
0.7741046905517578,0.3438817977905274,0
0.7766189575195312,0.3438817977905274,0
0.7675020217895507,0.3446393966674804,0
0.7498872756958007,0.3446393966674804,0
0.7553409576416016,0.3315101623535156,0
0.7627756118774414,0.3315101623535156,0
0.7561552047729492,0.3296751022338867,0
0.7455327987670898,0.3296751022338867,0
0.7442716598510742,0.3240571975708008,0
0.7417745590209961,0.3240571975708008,0
0.7408515930175781,0.3179798126220703,0
0.7457771301269531,0.3179798126220703,0
0.7387950897216796,0.3228899002075195,0
0.7245477676391602,0.3228899002075195,0
0.7324018478393555,0.3144927978515625,0
0.7433412551879882,0.3144927978515625,0
0.7391475677490235,0.3172594070434570,0
0.7318405151367188,0.3172594070434570,0
0.7322479248046875,0.3154890060424805,0
0.7324029922485351,0.3154890060424805,0
0.7330621719360352,0.3122829437255859,0
0.7399789810180664,0.3122829437255859,0
0.7343616485595703,0.3197731018066406,0
0.7218893051147460,0.3197731018066406,0
0.7307367324829102,0.3133438110351562,0
0.7429412841796875,0.3133438110351562,0
0.7395515441894531,0.3176204681396484,0
0.7330146789550781,0.3176204681396484,0
0.7342884063720703,0.3169355392456055,0
0.7351535797119141,0.3169355392456055,0
0.7361474990844726,0.3146100997924804,0
0.7436983108520507,0.3146100997924804,0
0.7384775161743163,0.3229288101196289,0
0.7263250350952148,0.3229288101196289,0
0.7356576919555664,0.3174282073974609,0
0.7486742019653320,0.3174282073974609,0
0.7460031509399414,0.3229093551635742,0
0.7402730941772461,0.3229093551635742,0
0.7428777694702148,0.3238185882568359,0
0.7445566177368164,0.3238185882568359,0
0.7462251663208007,0.3230186462402344,0
0.7548505783081054,0.3230186462402344,0
0.7499851226806641,0.3321355819702148,0
0.7391819000244141,0.3321355819702148,0
0.7487823486328125,0.3274898529052734,0
0.7621095657348632,0.3274898529052734,0
0.7588857650756836,0.3332015991210938,0
0.7528203964233399,0.3332015991210938,0
0.7540100097656249,0.3326883316040039,0
0.7548591613769531,0.3326883316040039,0
0.7555057525634765,0.3298982620239257,0
0.7625118255615234,0.3298982620239257,0
0.7563589096069335,0.3369758605957031,0
0.7433218002319336,0.3369758605957031,0
0.7517618179321289,0.3296407699584961,0
0.7632825851440429,0.3296407699584961,0
0.7591278076171875,0.3327564239501953,0
0.7514957427978516,0.3327564239501953,0
0.7519386291503906,0.3307657241821289,0
0.7517835617065429,0.3307657241821289,0
0.7519620895385742,0.3271156311035156,0
0.7584714889526367,0.3271156311035156,0
0.7527425765991210,0.3344055175781250,0
0.7397037506103515,0.3344055175781250,0
0.7482799530029297,0.3271722793579102,0
0.7601165771484375,0.3271722793579102,0
0.7566741943359375,0.3311336517333984,0
0.7496669769287109,0.3311336517333984,0
0.7507410049438477,0.3304641723632812,0
0.7517412185668945,0.3304641723632812,0
0.7523220062255859,0.3275230407714844,0
0.7596410751342774,0.3275230407714844,0
0.7541261672973633,0.3355991363525391,0
0.7420646667480468,0.3355991363525391,0
0.7511335372924804,0.3295835494995117,0
0.7637952804565430,0.3295835494995117,0
0.7604747772216797,0.3344793319702148,0
0.7543230056762695,0.3344793319702148,0
0.7556030273437500,0.3341995239257812,0
0.7570610046386719,0.3341995239257812,0
0.7581098556518554,0.3322631835937500,0
0.7658271789550781,0.3322631835937500,0
0.7606252670288086,0.3408187866210937,0
0.7487960815429687,0.3408187866210937,0
0.7580045700073242,0.3352878570556641,0
0.7709621429443360,0.3352878570556641,0
0.7688180923461914,0.3405990600585938,0
0.7621404647827148,0.3405990600585938,0
0.7633420944213867,0.3405223846435547,0
0.7647502899169921,0.3405223846435547,0
0.7656663894653321,0.3387434005737305,0
0.7736383438110351,0.3387434005737305,0
0.7689983367919921,0.3468240737915039,0
0.7571903228759765,0.3468240737915039,0
0.7658420562744140,0.3417835235595703,0
0.7787034988403320,0.3417835235595703,0
0.7755277633666992,0.3469980239868164,0
0.7693965911865234,0.3469980239868164,0
0.7708969116210938,0.3468389511108398,0
0.7725694656372070,0.3468389511108398,0
0.7733613967895507,0.3449775695800781,0
0.7810386657714844,0.3449775695800781,0
0.7759929656982422,0.3533935546875000,0
0.7639789581298828,0.3533935546875000,0
0.7731542587280273,0.3476680755615234,0
0.7859224319458008,0.3476680755615234,0
0.7825006484985352,0.3526262283325195,0
0.7760576248168946,0.3526262283325195,0
0.7773324966430664,0.3519887924194336,0
0.7785604476928710,0.3519887924194336,0
0.7796831130981445,0.3496267318725586,0
0.7865169525146484,0.3496267318725586,0
0.7814088821411133,0.3575454711914062,0
0.7689130783081054,0.3575454711914062,0
0.7775293350219726,0.3513135910034180,0
0.7900468826293945,0.3513135910034180,0
0.7870874404907227,0.3563879013061523,0
0.7802490234375000,0.3563879013061523,0
0.7807291030883788,0.3547668457031250,0
0.7818431854248047,0.3547668457031250,0
0.7823902130126953,0.3521106719970703,0
0.7894100189208985,0.3521106719970703,0
0.7840221405029296,0.3597152709960937,0
0.7715909957885742,0.3597152709960937,0
0.7802152633666992,0.3534748077392578,0
0.7926784515380859,0.3534748077392578,0
0.7891027450561523,0.3580038070678711,0
0.7823484420776367,0.3580038070678711,0
0.7834613800048827,0.3570831298828125,0
0.7847070693969727,0.3570831298828125,0
0.7853044509887696,0.3546661376953125,0
0.7925703048706054,0.3546661376953125,0
0.7874244689941406,0.3625717163085938,0
0.7750116348266601,0.3625717163085938,0
0.7836542129516602,0.3565046310424805,0
0.7964881896972656,0.3565046310424805,0
0.7930377960205078,0.3612613677978516,0
0.7861999511718750,0.3612613677978516,0
0.7869993209838867,0.3605913162231445,0
0.7888629913330077,0.3605913162231445,0
0.7893636703491210,0.3584060668945312,0
0.7966180801391601,0.3584060668945312,0
0.7911300659179688,0.3656587600708008,0
0.7782714843749999,0.3656587600708008,0
0.7864448547363281,0.3584661483764648,0
0.7981384277343749,0.3584661483764648,0
0.7931259155273437,0.3609003067016601,0
0.7841314315795899,0.3609003067016601,0
0.7823925018310547,0.3553459167480469,0
0.7790960311889649,0.3553459167480469,0
0.7763923645019531,0.3460739135742187,0
0.7782331466674804,0.3460739135742187,0
0.7688472747802734,0.3465425491333008,0
0.7509761810302734,0.3465425491333008,0
0.7557855606079101,0.3322322845458984,0
0.7631063461303711,0.3322322845458984,0
0.7561357498168945,0.3301809310913086,0
0.7444290161132813,0.3301809310913086,0
0.7431598663330078,0.3240983963012695,0
0.7413007736206054,0.3240983963012695,0
0.7396751403808594,0.3173835754394531,0
0.7440576553344727,0.3173835754394531,0
0.7370149612426757,0.3217981338500976,0
0.7225524902343750,0.3217981338500976,0
0.7299190521240234,0.3130422592163086,0
0.7410936355590820,0.3130422592163086,0
0.7366001129150390,0.3160211563110352,0
0.7285520553588867,0.3160211563110352,0
0.7291505813598632,0.3138153076171875,0
0.7299156188964844,0.3138153076171875,0
0.7293703079223632,0.3102991104125977,0
0.7363082885742187,0.3102991104125977,0
0.7308780670166015,0.3173532485961914,0
0.7181665420532226,0.3173532485961914,0
0.7264469146728515,0.3106985092163086,0
0.7387075424194336,0.3106985092163086,0
0.7353521347045898,0.3150129318237305,0
0.7280776977539062,0.3150129318237305,0
0.7292003631591797,0.3138450622558593,0
0.7306039810180663,0.3138450622558593,0
0.7310342788696289,0.3110355377197265,0
0.7379333496093750,0.3110355377197265,0
0.7324184417724610,0.3184009552001953,0
0.7198339462280273,0.3184009552001953,0
0.7284713745117187,0.3120534896850586,0
0.7411245346069336,0.3120534896850586,0
0.7376386642456054,0.3170127868652344,0
0.7310085296630859,0.3170127868652344,0
0.7330690383911133,0.3166030883789062,0
0.7348411560058593,0.3166030883789062,0
0.7354614257812500,0.3147371292114258,0
0.7432880401611328,0.3147371292114258,0
0.7384265899658203,0.3235038757324218,0
0.7271472930908203,0.3235038757324218,0
0.7364255905151367,0.3185995101928711,0
0.7500926971435546,0.3185995101928711,0
0.7471252441406250,0.3246339797973632,0
0.7408538818359375,0.3246339797973632,0
0.7426551818847656,0.3246076583862305,0
0.7447923660278321,0.3246076583862305,0
0.7455865859985351,0.3224550247192383,0
0.7525846481323242,0.3224550247192383,0
0.7475423812866211,0.3302204132080078,0
0.7352651596069336,0.3302204132080078,0
0.7432313919067383,0.3237636566162109,0
0.7556705474853516,0.3237636566162109,0
0.7517869949340820,0.3278932571411133,0
0.7442590713500976,0.3278932571411133,0
0.7448736190795898,0.3253440856933594,0
0.7460735321044921,0.3253440856933594,0
0.7457462310791015,0.3224384307861328,0
0.7519134521484375,0.3224384307861328,0
0.7462297439575195,0.3291910171508789,0
0.7326822280883789,0.3291910171508789,0
0.7414953231811523,0.3223611831665039,0
0.7536718368530273,0.3223611831665039,0
0.7500011444091796,0.3266201019287109,0
0.7427570343017578,0.3266201019287109,0
0.7438213348388671,0.3253423690795899,0
0.7453290939331054,0.3253423690795899,0
0.7455390930175781,0.3219480514526367,0
0.7522584915161132,0.3219480514526367,0
0.7472454071044922,0.3300716400146484,0
0.7351804733276367,0.3300716400146484,0
0.7433664321899414,0.3239971160888672,0
0.7565448760986327,0.3239971160888672,0
0.7528982162475586,0.3290937423706055,0
0.7462240219116211,0.3290937423706055,0
0.7473701477050781,0.3285690307617187,0
0.7495960235595703,0.3285690307617187,0
0.7501482009887696,0.3270595550537109,0
0.7575714111328125,0.3270595550537109,0
0.7527940750122070,0.3346418380737304,0
0.7411542892456054,0.3346418380737304,0
0.7496498107910156,0.3291526794433594,0
0.7627801895141602,0.3291526794433594,0
0.7538394927978516,0.3404680252075195,0
0.7538394927978516,0.3346446990966797,0
0.7548128128051758,0.3327129364013672,0
0.7653184890747070,0.3327129364013672,0
0.7607465744018554,0.3410631179809570,0
0.7491708755493164,0.3410631179809570,0
0.7576807022094726,0.3357616424560547,0
0.7706296920776367,0.3357616424560547,0
0.7676782608032227,0.3406614303588867,0
0.7613067626953125,0.3406614303588867,0
0.7626291275024414,0.3411884307861328,0
0.7650272369384765,0.3411884307861328,0
0.7658420562744140,0.3391925811767578,0
0.7730598449707031,0.3391925811767578,0
0.7683557510375977,0.3472967147827148,0
0.7565769195556641,0.3472967147827148,0
0.7650203704833984,0.3417011260986328,0
0.7779899597167969,0.3417011260986328,0
0.7746671676635742,0.3469934463500977,0
0.7680187225341797,0.3469934463500977,0
0.7695522308349609,0.3463720321655273,0
0.7712963104248046,0.3463720321655273,0
0.7717712402343749,0.3435161590576172,0
0.7787401199340820,0.3435161590576172,0
0.7736114501953125,0.3513525009155273,0
0.7614480972290039,0.3513525009155273,0
0.7694532394409179,0.3453380584716797,0
0.7821859359741211,0.3453380584716797,0
0.7787590026855469,0.3503087997436523,0
0.7718090057373047,0.3503087997436523,0
0.7730163574218750,0.3494636535644531,0
0.7749464035034179,0.3494636535644531,0
0.7751129150390624,0.3468206405639648,0
0.7819730758666992,0.3468206405639648,0
0.7768878936767578,0.3542598724365234,0
0.7650512695312500,0.3542598724365234,0
0.7731290817260742,0.3481550216674805,0
0.7855195999145508,0.3481550216674805,0
0.7821264266967773,0.3530479431152344,0
0.7752222061157227,0.3530479431152344,0
0.7764032363891601,0.3523641586303711,0
0.7785255432128906,0.3523641586303711,0
0.7789335250854492,0.3500450134277344,0
0.7858663558959961,0.3500450134277344,0
0.7810134887695312,0.3576089859008789,0
0.7692735671997070,0.3576089859008789,0
0.7772369384765625,0.3512735366821289,0
0.7899627685546875,0.3512735366821289,0
0.7866720199584961,0.3569435119628906,0
0.7796333312988281,0.3569435119628906,0
0.7808876037597656,0.3561195373535156,0
0.7829750061035156,0.3561195373535156,0
0.7831918716430664,0.3536172866821289,0
0.7899684906005859,0.3536172866821289,0
0.7849794387817383,0.3606817245483399,0
0.7726936340332031,0.3606817245483399,0
0.7799400329589844,0.3537317276000976,0
0.7913297653198242,0.3537317276000976,0
0.7865472793579101,0.3562328338623047,0
0.7769405364990234,0.3562328338623047,0
0.7756084442138672,0.3509714126586914,0
0.7738019943237304,0.3509714126586914,0
0.7705324172973632,0.3419660568237304,0
0.7723028182983398,0.3419660568237304,0
0.7641752243041992,0.3422750473022461,0
0.7468740463256835,0.3422750473022461,0
0.7510305404663086,0.3292545318603515,0
0.7588525772094726,0.3292545318603515,0
0.7520696640014648,0.3278978347778320,0
0.7408956527709961,0.3278978347778320,0
0.7400081634521484,0.3223943710327148,0
0.7386789321899414,0.3223943710327148,0
0.7370378494262695,0.3161441802978516,0
0.7413648605346680,0.3161441802978516,0
0.7349178314208984,0.3203149795532226,0
0.7212209701538086,0.3203149795532226,0
0.7276674270629883,0.3118967056274414,0
0.7388134002685547,0.3118967056274414,0
0.7344068527221680,0.3151273727416992,0
0.7258953094482422,0.3151273727416992,0
0.7269922256469726,0.3130594253540039,0
0.7283477783203125,0.3130594253540039,0
0.7280210494995117,0.3096153259277344,0
0.7343633651733398,0.3096153259277344,0
0.7291236877441406,0.3161876678466797,0
0.7172418594360351,0.3161876678466797,0
0.7246719360351562,0.3096891403198242,0
0.7369977951049804,0.3096891403198242,0
0.7334712982177735,0.3143171310424804,0
0.7261213302612305,0.3143171310424804,0
0.7272886276245117,0.3133449554443359,0
0.7294830322265625,0.3133449554443359,0
0.7294223785400390,0.3112472534179687,0
0.7361011505126953,0.3112472534179687,0
0.7314056396484375,0.3175706863403320,0
0.7195821762084961,0.3175706863403320,0
0.7274459838867188,0.3118658065795898,0
0.7400768280029296,0.3118658065795898,0
0.7368398666381836,0.3171461105346680,0
0.7301021575927734,0.3171461105346680,0
0.7318536758422851,0.3171175003051758,0
0.7349372863769531,0.3171175003051758,0
0.7358476638793945,0.3170070648193359,0
0.7439174652099609,0.3170070648193359,0
0.7395166397094727,0.3244365692138672,0
0.7288032531738281,0.3244365692138672,0
0.7375854492187500,0.3196060180664063,0
0.7512273788452148,0.3196060180664063,0
0.7485042572021484,0.3265325546264649,0
0.7422529220581054,0.3265325546264649,0
0.7440759658813476,0.3267471313476563,0
0.7469295501708985,0.3267471313476563,0
0.7473049163818359,0.3249464035034180,0
0.7543127059936523,0.3249464035034180,0
0.7495061874389648,0.3319135665893554,0
0.7375511169433594,0.3319135665893554,0
0.7449611663818360,0.3255100250244141,0
0.7571926116943359,0.3255100250244141,0
0.7532381057739258,0.3297014236450195,0
0.7452524185180663,0.3297014236450195,0
0.7459665298461914,0.3277868270874023,0
0.7473283767700195,0.3277868270874023,0
0.7466320037841797,0.3242528915405273,0
0.7526229858398438,0.3242528915405273,0
0.7475818634033203,0.3299972534179688,0
0.7346809387207031,0.3299972534179688,0
0.7417545318603516,0.3229820251464844,0
0.7537113189697265,0.3229820251464844,0
0.7496309280395508,0.3271688461303711,0
0.7420938491821288,0.3271688461303711,0
0.7433132171630860,0.3249441146850586,0
0.7459379196166992,0.3249441146850586,0
0.7451408386230468,0.3231616973876953,0
0.7411199569702148,0.3231616973876953,0
0.7467927932739258,0.3299674987792969,0
0.7350133895874024,0.3299674987792969,0
0.7426534652709961,0.3240022659301758,0
0.7554491043090820,0.3240022659301758,0
0.7520874023437499,0.3293220520019531,0
0.7450235366821288,0.3293220520019531,0
0.7466863632202149,0.3290233612060547,0
0.7494209289550781,0.3290233612060547,0
0.7498180389404296,0.3271659851074218,0
0.7569025039672851,0.3271659851074218,0
0.7523849487304687,0.3347019195556640,0
0.7412830352783203,0.3347019195556640,0
0.7492240905761719,0.3293649673461914,0
0.7623933792114258,0.3293649673461914,0
0.7594385147094727,0.3352706909179687,0
0.7525829315185547,0.3352706909179687,0
0.7542852401733399,0.3352226257324218,0
0.7573024749755859,0.3352226257324218,0
0.7577842712402344,0.3337245941162109,0
0.7643886566162109,0.3337245941162109,0
0.7607299804687500,0.3413669586181641,0
0.7494323730468749,0.3413669586181641,0
0.7572383880615234,0.3359035491943359,0
0.7704185485839844,0.3359035491943359,0
0.7672817230224609,0.3417068481445312,0
0.7603900909423827,0.3417068481445312,0
0.7619213104248047,0.3414402008056641,0
0.7648595809936524,0.3414402008056641,0
0.7651742935180664,0.3397018432617188,0
0.7720424652099609,0.3397018432617188,0
0.7672920227050781,0.3470214843750000,0
0.7566055297851563,0.3470214843750000,0
0.7637048721313476,0.3405773162841797,0
0.7763986587524414,0.3405773162841797,0
0.7730146408081054,0.3464538574218750,0
0.7657184600830078,0.3464538574218750,0
0.7672914505004883,0.3458553314208984,0
0.7699905395507812,0.3458553314208984,0
0.7662746429443359,0.3566539764404297,0
0.7662746429443359,0.3456447601318359,0
0.7662746429443359,0.3456447601318359,0
0.7736686706542969,0.3468675613403320,0
0.7727079391479492,0.3502132415771484,0
0.7665012359619140,0.3502132415771484,0
0.7711887359619141,0.3466850280761719,0
0.7830596923828125,0.3466850280761719,0
0.7790948867797851,0.3521232604980469,0
0.7653144836425781,0.3521232604980469,0
0.7696071624755859,0.3482597351074219,0
0.7780294418334961,0.3482597351074219,0
0.7766910552978515,0.3496496200561524,0
0.7767505645751953,0.3496496200561524,0
0.7757057189941406,0.3529037475585937,0
0.7696249008178710,0.3529037475585937,0
0.7744102478027344,0.3494195938110352,0
0.7864431381225586,0.3494195938110352,0
0.7824554443359375,0.3550191879272461,0
0.7689474105834960,0.3550191879272461,0
0.7732675552368163,0.3511899948120117,0
0.7817625045776367,0.3511899948120117,0
0.7803915023803710,0.3527023315429688,0
0.7803354263305664,0.3527023315429688,0
0.7795749664306640,0.3556503295898437,0
0.7736177444458008,0.3556503295898437,0
0.7783647537231445,0.3526685714721680,0
0.7903089523315430,0.3526685714721680,0
0.7864305496215820,0.3583322525024414,0
0.7727914810180664,0.3583322525024414,0
0.7772415161132812,0.3544595718383789,0
0.7852975845336914,0.3544595718383789,0
0.7835620880126953,0.3550615310668945,0
0.7827369689941406,0.3550615310668945,0
0.7805374145507812,0.3571254730224609,0
0.7729877471923828,0.3571254730224609,0
0.7751197814941406,0.3491529464721679,0
0.7834487915039062,0.3491529464721679,0
0.7762790679931640,0.3489852905273437,0
0.7581069946289062,0.3489852905273437,0
0.7588737487792968,0.3383800506591797,0
0.7625329971313476,0.3383800506591797,0
0.7575691223144531,0.3327919006347656,0
0.7527648925781250,0.3327919006347656,0
0.7482175827026367,0.3297054290771484,0
0.7382949829101563,0.3297054290771484,0
0.7405929565429688,0.3214153289794922,0
0.7493053436279297,0.3214153289794922,0
0.7434768676757812,0.3233985900878906,0
0.7273630142211914,0.3233985900878906,0
0.7300792694091797,0.3167861938476562,0
0.7367443084716797,0.3167861938476562,0
0.7341321945190430,0.3152956008911132,0
0.7325191497802734,0.3152956008911132,0
0.7307762145996094,0.3168628692626953,0
0.7237752914428711,0.3168628692626953,0
0.7281864166259765,0.3124694824218750,0
0.7393821716308594,0.3124694824218750,0
0.7349361419677735,0.3173274993896484,0
0.7208673477172851,0.3173274993896484,0
0.7252058029174805,0.3128459930419922,0
0.7334821701049804,0.3128459930419922,0
0.7320888519287109,0.3139280319213867,0
0.7316768646240234,0.3139280319213867,0
0.7307584762573242,0.3167947769165039,0
0.7234645843505859,0.3167947769165039,0
0.7297874450683594,0.3135921478271484,0
0.7414295196533203,0.3135921478271484,0
0.7372667312622070,0.3191751480102539,0
0.7238170623779296,0.3191751480102539,0
0.7282453536987304,0.3153820037841797,0
0.7371122360229492,0.3153820037841797,0
0.7359838485717773,0.3171123504638672,0
0.7362825393676757,0.3171123504638672,0
0.7355810165405273,0.3208362579345703,0
0.7303104400634766,0.3208362579345703,0
0.7360404968261719,0.3187797546386719,0
0.7488189697265625,0.3187797546386719,0
0.7453496932983398,0.3258407592773437,0
0.7327262878417968,0.3258407592773437,0
0.7382514953613281,0.3236148834228516,0
0.7479022979736328,0.3236148834228516,0
0.7474319458007812,0.3263586044311523,0
0.7480522155761719,0.3263586044311523,0
0.7479131698608398,0.3305751800537109,0
0.7427021026611328,0.3305751800537109,0
0.7480493545532226,0.3274749755859375,0
0.7601446151733399,0.3274749755859375,0
0.7559572219848633,0.3340982437133789,0
0.7421482086181640,0.3340982437133789,0
0.7465805053710938,0.3295629501342773,0
0.7546806335449219,0.3295629501342773,0
0.7526321411132812,0.3300367355346679,0
0.7518722534179687,0.3300367355346679,0
0.7503799438476563,0.3318666458129882,0
0.7436325073242187,0.3318666458129882,0
0.7479223251342774,0.3277708053588867,0
0.7589075088500976,0.3277708053588867,0
0.7532398223876953,0.3318311691284180,0
0.7395944595336914,0.3318311691284180,0
0.7437068939208984,0.3273656845092773,0
0.7516073226928711,0.3273656845092773,0
0.7498037338256835,0.3277542114257813,0
0.7489305496215820,0.3277542114257813,0
0.7476837158203125,0.3300527572631836,0
0.7414781570434570,0.3300527572631836,0
0.7464448928833007,0.3267099380493164,0
0.7578821182250977,0.3267099380493164,0
0.7535539627075195,0.3323902130126953,0
0.7399154663085937,0.3323902130126953,0
0.7445657730102538,0.3283201217651367,0
0.7532833099365234,0.3283201217651367,0
0.7519809722900390,0.3297208786010742,0
0.7517646789550781,0.3297208786010742,0
0.7509532928466797,0.3327169418334961,0
0.7453931808471680,0.3327169418334961,0
0.7506889343261719,0.3303577423095703,0
0.7625249862670899,0.3303577423095703,0
0.7585052490234375,0.3366176605224609,0
0.7451877593994141,0.3366176605224609,0
0.7513664245605468,0.3324491500854492,0
0.7596696853637696,0.3324491500854492,0
0.7583393096923828,0.3350858688354492,0
0.7584417343139648,0.3350858688354492,0
0.7578866958618163,0.3390924453735352,0
0.7529050827026367,0.3390924453735352,0
0.7661928176879883,0.3428907394409180,0
0.7661928176879883,0.3428907394409180,0
0.7580045700073242,0.3395233154296875,0
0.7672342300415039,0.3395233154296875,0
0.7662860870361328,0.3416107177734375,0
0.7664113998413086,0.3416107177734375,0
0.7654546737670899,0.3446680068969726,0
0.7601303100585938,0.3446680068969726,0
0.7660634994506835,0.3428289413452149,0
0.7781204223632813,0.3428289413452149,0
0.7732046127319335,0.3486614227294922,0
0.7600816726684571,0.3486614227294922,0
0.7657510757446289,0.3458272933959961,0
0.7748765945434570,0.3458272933959961,0
0.7736595153808593,0.3475490570068359,0
0.7733076095581054,0.3475490570068359,0
0.7725402832031250,0.3505331039428711,0
0.7670145034790039,0.3505331039428711,0
0.7722398757934570,0.3480051040649414,0
0.7840559005737304,0.3480051040649414,0
0.7797534942626952,0.3539955139160156,0
0.7659484863281250,0.3539955139160156,0
0.7708700180053710,0.3498596191406250,0
0.7795618057250976,0.3498596191406250,0
0.7780054092407226,0.3510847091674805,0
0.7775957107543945,0.3510847091674805,0
0.7765611648559571,0.3535594940185547,0
0.7707693099975585,0.3535594940185547,0
0.7753675460815429,0.3510898590087890,0
0.7875595092773438,0.3510898590087890,0
0.7828268051147461,0.3566551208496094,0
0.7680536270141601,0.3566551208496094,0
0.7738552093505859,0.3522914886474609,0
0.7826002120971679,0.3522914886474609,0
0.7809751510620117,0.3535697937011719,0
0.7805133819580078,0.3535697937011719,0
0.7796230316162109,0.3560531616210937,0
0.7739261627197266,0.3560531616210937,0
0.7790628433227539,0.3535354614257812,0
0.7908857345581054,0.3535354614257812,0
0.7865867614746094,0.3595733642578125,0
0.7727972030639648,0.3595733642578125,0
0.7779567718505859,0.3554437637329101,0
0.7862434387207031,0.3554437637329101,0
0.7849754333496094,0.3564079284667969,0
0.7847270965576172,0.3564079284667969,0
0.7838716506958008,0.3592941284179688,0
0.7775814056396484,0.3592941284179688,0
0.7831472396850586,0.3566225051879883,0
0.7944997787475586,0.3566225051879883,0
0.7895622253417969,0.3623657226562500,0
0.7753269195556640,0.3623657226562500,0
0.7798170089721680,0.3567512512207031,0
0.7870473861694336,0.3567512512207031,0
0.7838041305541992,0.3552177429199219,0
0.7802215576171875,0.3552177429199219,0
0.7764410018920899,0.3523584365844726,0
0.7665298461914062,0.3523584365844726,0
0.7677572250366210,0.3427413940429687,0
0.7737762451171875,0.3427413940429687,0
0.7649888992309570,0.3411231994628906,0
0.7462743759155274,0.3411231994628906,0
0.7474571228027344,0.3295291900634765,0
0.7514207839965820,0.3295291900634765,0
0.7464099884033203,0.3245853424072265,0
0.7418294906616211,0.3245853424072265,0
0.7384042739868164,0.3224029541015625,0
0.7298503875732422,0.3224029541015625,0
0.7315263748168945,0.3162065505981445,0
0.7416355133056640,0.3162065505981445,0
0.7355403900146484,0.3189577102661132,0
0.7202642440795898,0.3189577102661132,0
0.7241123199462890,0.3122714996337890,0
0.7313014984130859,0.3122714996337890,0
0.7288982391357421,0.3119224548339843,0
0.7273973464965821,0.3119224548339843,0
0.7259628295898437,0.3130760192871094,0
0.7196582794189453,0.3130760192871094,0
0.7246845245361327,0.3095764160156250,0
0.7354722976684570,0.3095764160156250,0
0.7303373336791992,0.3152212142944336,0
0.7164173126220703,0.3152212142944336,0
0.7215969085693359,0.3102098464965820,0
0.7296352386474609,0.3102098464965820,0
0.7279094696044922,0.3112192153930664,0
0.7271512985229492,0.3112192153930664,0
0.7260635375976562,0.3131200790405274,0
0.7202436447143554,0.3131200790405274,0
0.7254009246826172,0.3101188659667969,0
0.7365921020507812,0.3101188659667969,0
0.7313158035278320,0.3160778045654297,0
0.7176475524902344,0.3160778045654297,0
0.7228443145751953,0.3113405227661133,0
0.7314949035644531,0.3113405227661133,0
0.7295866012573242,0.3125673294067383,0
0.7292112350463867,0.3125673294067383,0
0.7284530639648438,0.3149185180664062,0
0.7232105255126953,0.3149185180664062,0
0.7289703369140624,0.3132024765014648,0
0.7411010742187499,0.3132024765014648,0
0.7365343093872070,0.3203619003295898,0
0.7239034652709960,0.3203619003295898,0
0.7298217773437500,0.3170265197753906,0
0.7392442703247070,0.3170265197753906,0
0.7390874862670899,0.3207801818847656,0
0.7393129348754882,0.3207801818847656,0
0.7383069992065430,0.3227159500122070,0
0.7332664489746094,0.3227159500122070,0
0.7389856338500976,0.3208671569824219,0
0.7507530212402344,0.3208671569824219,0
0.7458909988403321,0.3276397705078125,0
0.7325019836425781,0.3276397705078125,0
0.7382743835449218,0.3228281021118164,0
0.7461067199707031,0.3228281021118164,0
0.7442047119140625,0.3236206054687500,0
0.7429801940917968,0.3236206054687500,0
0.7417270660400390,0.3250064849853516,0
0.7354539871215821,0.3250064849853516,0
0.7397432327270508,0.3216562271118164,0
0.7507061004638672,0.3216562271118164,0
0.7453382492065429,0.3272197723388672,0
0.7314067840576172,0.3272197723388672,0
0.7362768173217773,0.3217700958251953,0
0.7443225860595702,0.3217700958251953,0
0.7425127029418945,0.3225185394287109,0
0.7414506912231446,0.3225185394287109,0
0.7403114318847656,0.3241476058959961,0
0.7345127105712891,0.3241476058959961,0
0.7397495269775390,0.3214061737060547,0
0.7509492874145508,0.3214061737060547,0
0.7458629608154297,0.3278223037719726,0
0.7324230194091796,0.3278223037719726,0
0.7378423690795898,0.3232011795043945,0
0.7465393066406250,0.3232011795043945,0
0.7451946258544921,0.3247163772583008,0
0.7445783615112305,0.3247163772583008,0
0.7437538146972656,0.3274166107177734,0
0.7384906768798828,0.3274166107177734,0
0.7444084167480468,0.3250247955322266,0
0.7559892654418945,0.3250247955322266,0
0.7508995056152343,0.3320995330810547,0
0.7377605438232422,0.3320995330810547,0
0.7438705444335937,0.3280248641967773,0
0.7529754638671875,0.3280248641967773,0
0.7517566680908203,0.3301523208618164,0
0.7513418197631836,0.3301523208618164,0
0.7509309768676757,0.3329950332641601,0
0.7462463378906250,0.3329950332641601,0
0.7520484924316406,0.3313459396362304,0
0.7636791229248047,0.3313459396362304,0
0.7588262557983398,0.3387393951416016,0
0.7459911346435547,0.3387393951416016,0
0.7518184661865234,0.3347122192382813,0
0.7611345291137696,0.3347122192382813,0
0.7600507736206055,0.3368854522705078,0
0.7594488143920898,0.3368854522705078,0
0.7588937759399413,0.3394197463989257,0
0.7538240432739257,0.3394197463989257,0
0.7596445083618164,0.3376058578491211,0
0.7716379165649414,0.3376058578491211,0
0.7664022445678711,0.3449426651000976,0
0.7532999038696289,0.3449426651000976,0
0.7590528488159179,0.3405492782592773,0
0.7680736541748047,0.3405492782592773,0
0.7667861938476562,0.3423425674438477,0
0.7667072296142577,0.3423425674438477,0
0.7654575347900391,0.3446765899658203,0
0.7602069854736327,0.3446765899658203,0
0.7657041549682617,0.3424335479736328,0
0.7769994735717773,0.3424335479736328,0
0.7716384887695312,0.3493492126464844,0
0.7582918167114258,0.3493492126464844,0
0.7640201568603515,0.3445049285888672,0
0.7727840423583984,0.3445049285888672,0
0.7711200714111328,0.3458307266235351,0
0.7699922561645508,0.3458307266235351,0
0.7690824508666992,0.3476623535156250,0
0.7638141632080078,0.3476623535156250,0
0.7693336486816406,0.3450199127197265,0
0.7804195404052734,0.3450199127197265,0
0.7747604370117187,0.3519207000732422,0
0.7611642837524414,0.3519207000732422,0
0.7672222137451171,0.3469848632812500,0
0.7760604858398438,0.3469848632812500,0
0.7741968154907226,0.3483427047729492,0
0.7731010437011718,0.3483427047729492,0
0.7723583221435547,0.3502922058105469,0
0.7670757293701171,0.3502922058105469,0
0.7719257354736327,0.3479192733764648,0
0.7831724166870117,0.3479192733764648,0
0.7782812118530273,0.3550352096557617,0
0.7652853012084960,0.3550352096557617,0
0.7711927413940429,0.3504283905029297,0
0.7802827835083007,0.3504283905029297,0
0.7785776138305663,0.3520694732666015,0
0.7775928497314453,0.3520694732666015,0
0.7769954681396484,0.3542530059814453,0
0.7717964172363281,0.3542530059814453,0
0.7774515151977539,0.3519487380981445,0
0.7886695861816406,0.3519487380981445,0
0.7831415176391602,0.3591825485229492,0
0.7698783874511719,0.3591825485229492,0
0.7759632110595703,0.3543359756469727,0
0.7847803115844726,0.3543359756469727,0
0.7829486846923828,0.3554031372070313,0
0.7811599731445312,0.3554031372070313,0
0.7796899795532226,0.3559541702270508,0
0.7731096267700195,0.3559541702270508,0
0.7770401000976562,0.3505050659179688,0
0.7847248077392578,0.3505050659179688,0
0.7760822296142578,0.3522634506225586,0
0.7585138320922852,0.3522634506225586,0
0.7603425979614258,0.3402591705322265,0
0.7639480590820312,0.3402591705322265,0
0.7581602096557617,0.3340696334838867,0
0.7517297744750976,0.3340696334838867,0
0.7468614578247070,0.3285438537597656,0
0.7371768951416016,0.3285438537597656,0
0.7395200729370117,0.3203338623046875,0
0.7468053817749023,0.3203338623046875,0
0.7389736175537109,0.3234649658203125,0
0.7226383209228515,0.3234649658203125,0
0.7267169952392578,0.3142839431762695,0
0.7332178115844726,0.3142839431762695,0
0.7299333572387695,0.3127658843994141,0
0.7265745162963867,0.3127658843994141,0
0.7244945526123047,0.3121942520141601,0
0.7182546615600586,0.3121942520141601,0
0.7229930877685546,0.3079977035522461,0
0.7329683303833008,0.3079977035522461,0
0.7267976760864258,0.3142484664916992,0
0.7128444671630859,0.3142484664916992,0
0.7184652328491211,0.3082145690917968,0
0.7268383026123046,0.3082145690917968,0
0.7248144149780273,0.3089550018310547,0
0.7228420257568359,0.3089550018310547,0
0.7218852996826172,0.3101657867431640,0
0.7166347503662109,0.3101657867431640,0
0.7218973159790039,0.3071634292602539,0
0.7326164245605469,0.3071634292602539,0
0.7266637802124023,0.3142496109008789,0
0.7133543014526367,0.3142496109008789,0
0.7193607330322266,0.3083587646484375,0
0.7278070449829102,0.3083587646484375,0
0.7260789871215820,0.3098922729492187,0
0.7199380874633788,0.3098922729492187,0
0.7234920501708985,0.3112873077392578,0
0.7182518005371094,0.3112873077392578,0
0.7238817214965820,0.3086803436279297,0
0.7350414276123046,0.3086803436279297,0
0.7295574188232422,0.3166036605834961,0
0.7167869567871094,0.3166036605834961,0
0.7234703063964844,0.3121507644653320,0
0.7330558776855468,0.3121507644653320,0
0.7320230484008788,0.3145866394042969,0
0.7312425613403321,0.3145866394042969,0
0.7309816360473632,0.3173807144165039,0
0.7269121170043945,0.3173807144165039,0
0.7330581665039062,0.3159238815307617,0
0.7446252822875976,0.3159238815307617,0
0.7395315170288086,0.3248102188110352,0
0.7269172668457031,0.3248102188110352,0
0.7335021972656249,0.3199321746826172,0
0.7427782058715821,0.3199321746826172,0
0.7409133911132812,0.3216344833374024,0
0.7392774581909179,0.3216344833374024,0
0.7384895324707031,0.3226558685302734,0
0.7332979202270508,0.3226558685302734,0
0.7386222839355469,0.3198463439941406,0
0.7488613128662109,0.3198463439941406,0
0.7426197052001953,0.3267608642578125,0
0.7289606094360351,0.3267608642578125,0
0.7347507476806641,0.3206989288330078,0
0.7424549102783203,0.3206989288330078,0
0.7409666061401367,0.3214605331420898,0
0.7386234283447265,0.3214605331420898,0
0.7375402450561523,0.3223239898681641,0
0.7322725296020508,0.3223239898681641,0
0.7374670028686523,0.3189805984497070,0
0.7479869842529296,0.3189805984497070,0
0.7420377731323242,0.3269382476806640,0
0.7286750793457031,0.3269382476806640,0
0.7348560333251953,0.3209878921508789,0
0.7437864303588867,0.3209878921508789,0
0.7420286178588867,0.3224218368530273,0
0.7400087356567383,0.3224218368530273,0
0.7397237777709961,0.3238620758056641,0
0.7347146987915039,0.3238620758056641,0
0.7401878356933593,0.3213649749755859,0
0.7509561538696289,0.3213649749755859,0
0.7456174850463867,0.3294765472412109,0
0.7325981140136718,0.3294765472412109,0
0.7391710281372070,0.3245704650878906,0
0.7485443115234375,0.3245704650878906,0
0.7469701766967773,0.3265399932861328,0
0.7454040527343749,0.3265399932861328,0
0.7445989608764648,0.3287052154541015,0
0.7404401779174804,0.3287052154541015,0
0.7467819213867187,0.3307331085205078,0
0.7495605468750000,0.3307331085205078,0
0.7501802444458008,0.3298398971557617,0
0.7563051223754883,0.3298398971557617,0
0.7508983612060547,0.3376161575317383,0
0.7413305282592774,0.3376161575317383,0
0.7490592956542969,0.3295886993408203,0
0.7626182556152343,0.3295886993408203,0
0.7585618972778320,0.3368946075439453,0
0.7504943847656250,0.3368946075439453,0
0.7528450012207031,0.3372287750244141,0
0.7575634002685546,0.3372287750244141,0
0.7582586288452148,0.3363040924072265,0
0.7641706466674805,0.3363040924072265,0
0.7584051132202149,0.3440385818481445,0
0.7488744735717773,0.3440385818481445,0
0.7564750671386719,0.3352626800537109,0
0.7700569152832031,0.3352626800537109,0
0.7659330368041992,0.3428455352783203,0
0.7575319290161132,0.3428455352783203,0
0.7594963073730469,0.3425874710083008,0
0.7639228820800781,0.3425874710083008,0
0.7635017395019531,0.3415277481079101,0
0.7695573806762696,0.3415277481079101,0
0.7645431518554687,0.3488611221313476,0
0.7544815063476562,0.3488611221313476,0
0.7618778228759765,0.3400651931762695,0
0.7749223709106445,0.3400651931762695,0
0.7708230972290039,0.3467285156250000,0
0.7622154235839843,0.3467285156250000,0
0.7640499114990235,0.3461362838745117,0
0.7683843612670899,0.3461362838745117,0
0.7685611724853515,0.3445512771606445,0
0.7739685058593749,0.3445512771606445,0
0.7680490493774413,0.3521827697753906,0
0.7578580856323242,0.3521827697753906,0
0.7651021957397460,0.3426904678344727,0
0.7780265808105469,0.3426904678344727,0
0.7735708236694335,0.3491752624511719,0
0.7648166656494141,0.3491752624511719,0
0.7670162200927734,0.3486557006835938,0
0.7712825775146485,0.3486557006835938,0
0.7717060089111328,0.3472846984863281,0
0.7771419525146485,0.3472846984863281,0
0.7713277816772460,0.3545087814331054,0
0.7614131927490234,0.3545087814331054,0
0.7685737609863281,0.3456642150878906,0
0.7817041397094726,0.3456642150878906,0
0.7774394989013672,0.3524814605712890,0
0.7689411163330078,0.3524814605712890,0
0.7710273742675781,0.3521701812744141,0
0.7757417678833007,0.3521701812744141,0
0.7761457443237304,0.3509565353393554,0
0.7818380355834961,0.3509565353393554,0
0.7760919570922852,0.3586704254150391,0
0.7664834976196289,0.3586704254150391,0
0.7738454818725585,0.3500919342041016,0
0.7869861602783202,0.3500919342041016,0
0.7824989318847656,0.3570699691772461,0
0.7742706298828125,0.3570699691772461,0
0.7765445709228516,0.3567277908325195,0
0.7814552307128906,0.3567277908325195,0
0.7815782546997070,0.3554380416870117,0
0.7870227813720703,0.3554380416870117,0
0.7808818817138672,0.3623737335205078,0
0.7703327178955078,0.3623737335205078,0
0.7764490127563476,0.3517101287841797,0
0.7875543594360351,0.3517101287841797,0
0.7809019088745117,0.3545476913452149,0
0.7685880661010742,0.3545476913452149,0
0.7672559738159179,0.3480686187744140,0
0.7670282363891602,0.3480686187744140,0
0.7626491546630859,0.3386037826538086,0
0.7628002166748047,0.3386037826538086,0
0.7528295516967773,0.3381586074829102,0
0.7375802993774414,0.3381586074829102,0
