REDsignal,IRsignal,synced
0.5445161819458008,0.2500980377197266,0
0.5444961547851562,0.2500980377197266,0
0.5445659637451171,0.2486377716064453,0
0.5444984436035156,0.2486377716064453,0
0.5451095581054687,0.2490091323852539,0
0.5452777862548828,0.2490091323852539,0
0.5446483612060546,0.2491029739379883,0
0.5447645187377930,0.2491029739379883,0
0.5435005187988281,0.2469629287719727,0
0.5421678543090820,0.2469629287719727,0
0.5411012649536132,0.2468885421752930,0
0.5382946014404296,0.2468885421752930,0
0.5358192443847656,0.2412157058715820,0
0.5320186614990234,0.2412157058715820,0
0.5287828445434570,0.2356973648071289,0
0.5245445251464843,0.2356973648071289,0
0.5200098037719726,0.2296571731567383,0
0.5162252426147461,0.2296571731567383,0
0.5119794845581055,0.2226202011108398,0
0.5079980850219726,0.2226202011108398,0
0.5052509307861328,0.2198495864868164,0
0.5018737792968749,0.2198495864868164,0
0.4998035430908203,0.2146905899047852,0
0.4975547790527344,0.2146905899047852,0
0.4965213775634765,0.2124692916870117,0
0.4953037261962890,0.2124692916870117,0
0.4938177108764648,0.2112745285034180,0
0.4934640884399414,0.2112745285034180,0
0.4922784805297851,0.2091499328613281,0
0.4915752410888672,0.2091499328613281,0
0.4914951324462891,0.2104946136474609,0
0.4909154891967773,0.2104946136474609,0
0.4905950546264648,0.2085622787475586,0
0.4901338577270508,0.2085622787475586,0
0.4904588699340820,0.2084541320800781,0
0.4905218124389648,0.2084541320800781,0
0.4899576187133789,0.2086509704589844,0
0.4904531478881836,0.2086509704589844,0
0.4898380279541015,0.2075386047363281,0
0.4896743774414062,0.2075386047363281,0
0.4900932312011719,0.2095481872558594,0
0.4897035598754882,0.2095481872558594,0
0.4897584915161133,0.2079998016357422,0
0.4897132873535156,0.2079998016357422,0
0.4904726028442383,0.2098016738891602,0
0.4902723312377930,0.2094102859497070,0
0.4906110763549805,0.2084661483764648,0
0.4912422180175781,0.2084661483764648,0
0.4921743392944335,0.2113134384155273,0
0.4925394058227539,0.2113134384155273,0
0.4934045791625976,0.2110261917114258,0
0.4942497253417968,0.2110261917114258,0
0.4956178665161133,0.2126930236816406,0
0.4969739913940430,0.2126930236816406,0
0.4975061416625977,0.2146041870117187,0
0.4992078781127929,0.2146041870117187,0
0.4996290206909180,0.2151477813720703,0
0.5005971908569335,0.2151477813720703,0
0.5018188476562500,0.2185644149780273,0
0.5022771835327148,0.2185644149780273,0
0.5029558181762696,0.2180311203002930,0
0.5034570693969727,0.2180311203002930,0
0.5043491363525391,0.2188476562500000,0
0.5048973083496093,0.2188476562500000,0
0.5046134948730469,0.2195096969604492,0
0.5052589416503906,0.2195096969604492,0
0.5047296524047852,0.2185197830200195,0
0.5045597076416015,0.2185197830200195,0
0.5048269271850586,0.2203863143920898,0
0.5043050765991210,0.2203863143920898,0
0.5041723251342773,0.2185695648193359,0
0.5037563323974609,0.2185695648193359,0
0.5040693283081055,0.2183921813964844,0
0.5039525985717773,0.2183921813964844,0
0.5032567977905273,0.2184322357177734,0
0.5035760879516601,0.2184322357177734,0
0.5028934478759766,0.2171224594116211,0
0.5026777267456054,0.2171224594116211,0
0.5030422210693359,0.2191572189331055,0
0.5026760101318359,0.2191572189331055,0
0.5027177810668945,0.2176471710205078,0
0.5026702880859375,0.2176471710205078,0
0.5033752441406250,0.2180711746215820,0
0.5037843704223632,0.2180711746215820,0
0.5034788131713867,0.2187492370605469,0
0.5042867660522461,0.2187492370605469,0
0.5040481567382812,0.2182050704956055,0
0.5043216705322265,0.2182050704956055,0
0.5050643920898438,0.2208263397216797,0
0.5051256179809570,0.2208263397216797,0
0.5055913925170898,0.2199514389038086,0
0.5059215545654296,0.2199514389038086,0
0.5069337844848633,0.2209007263183594,0
0.5076272964477538,0.2209007263183594,0
0.5076524734497070,0.2220354080200195,0
0.5087882995605468,0.2220354080200195,0
0.5087625503540039,0.2219306945800781,0
0.5093273162841797,0.2219306945800781,0
0.5102731704711914,0.2248884201049805,0
0.5104997634887695,0.2248884201049805,0
0.5111331939697266,0.2242429733276367,0
0.5116321563720703,0.2242429733276367,0
0.5128166198730468,0.2254354476928711,0
0.5137018203735352,0.2254354476928711,0
0.5138620376586914,0.2267646789550781,0
0.5150876998901367,0.2267646789550781,0
0.5153068542480469,0.2269809722900391,0
0.5159357070922851,0.2269809722900391,0
0.5171178817749024,0.2301555633544922,0
0.5175098419189453,0.2301555633544922,0
0.5182405471801758,0.2296726226806640,0
0.5188413619995117,0.2296726226806640,0
0.5201122283935546,0.2309217453002930,0
0.5209842681884765,0.2309217453002930,0
0.5211307525634765,0.2322658538818359,0
0.5221881866455078,0.2322658538818359,0
0.5223735809326172,0.2323122024536133,0
0.5227294921875000,0.2323122024536133,0
0.5239631652832031,0.2351972579956055,0
0.5235837936401367,0.2351972579956055,0
0.5248100280761718,0.2345609664916992,0
0.5246904373168945,0.2345609664916992,0
0.5261650085449219,0.2355205535888672,0
0.5261701583862305,0.2355205535888672,0
0.5268779754638672,0.2365425109863281,0
0.5271949768066406,0.2365425109863281,0
0.5278667449951172,0.2367696762084961,0
0.5276996612548828,0.2367696762084961,0
0.5287324905395507,0.2382179260253906,0
0.5295627593994140,0.2382179260253906,0
0.5296760559082031,0.2383495330810547,0
0.5297286987304687,0.2383495330810547,0
0.5308828353881836,0.2391283035278320,0
0.5312736511230468,0.2391283035278320,0
0.5315780639648438,0.2400432586669922,0
0.5323345184326171,0.2400432586669922,0
0.5324426651000976,0.2399797439575195,0
0.5333925247192383,0.2399797439575195,0
0.5332998275756836,0.2420122146606445,0
0.5344648361206055,0.2420122146606445,0
0.5343584060668946,0.2419658660888672,0
0.5336494445800781,0.2419658660888672,0
0.5355079650878906,0.2425300598144531,0
0.5352928161621093,0.2425300598144531,0
0.5353837966918945,0.2426107406616211,0
0.5376892089843750,0.2426107406616211,0
0.5356716156005860,0.2420665740966797,0
0.5371433258056640,0.2420665740966797,0
0.5359954833984375,0.2441133499145508,0
0.5354066848754883,0.2441133499145508,0
0.5340808868408203,0.2411098480224609,0
0.5325925827026367,0.2411098480224609,0
0.5311426162719727,0.2384044647216797,0
0.5287113189697266,0.2384044647216797,0
0.5249267578125000,0.2341529846191406,0
0.5217521667480468,0.2341529846191406,0
0.5172243118286133,0.2272562026977539,0
0.5131072998046875,0.2272562026977539,0
0.5097673416137695,0.2235666275024414,0
0.5054437637329101,0.2235666275024414,0
0.5020139694213867,0.2167825698852539,0
0.4987575531005859,0.2167825698852539,0
0.4969945907592773,0.2131216049194336,0
0.4948843002319336,0.2131216049194336,0
0.4925720214843750,0.2107309341430664,0
0.4914241790771484,0.2107309341430664,0
0.4896583557128906,0.2077674865722656,0
0.4884000778198242,0.2077674865722656,0
0.4878976821899414,0.2084609985351562,0
0.4865667343139648,0.2084609985351562,0
0.4858503341674805,0.2057882308959961,0
0.4851167678833008,0.2057882308959961,0
0.4851768493652344,0.2052452087402344,0
0.4849531173706054,0.2052452087402344,0
0.4840501785278320,0.2050615310668945,0
0.4842132568359375,0.2050615310668945,0
0.4834665298461914,0.2036973953247070,0
0.4831747055053711,0.2036973953247070,0
0.4834951400756836,0.2054637908935547,0
0.4828382492065429,0.2054637908935547,0
0.4826007843017578,0.2036767959594727,0
0.4823089599609375,0.2036767959594727,0
0.4829486846923828,0.2036808013916016,0
0.4829967498779297,0.2036808013916016,0
0.4823850631713867,0.2039405822753906,0
0.4828708648681641,0.2039405822753906,0
0.4824125289916992,0.2030158996582031,0
0.4823976516723633,0.2030158996582031,0
0.4828674316406250,0.2051885604858398,0
0.4827575683593750,0.2051885604858398,0
0.4828920364379883,0.2039371490478516,0
0.4831026077270508,0.2039371490478516,0
0.4841388702392578,0.2047943115234375,0
0.4848827362060547,0.2047943115234375,0
0.4849771499633789,0.2060789108276367,0
0.4862611770629883,0.2060789108276367,0
0.4865369796752930,0.2063037872314453,0
0.4874656677246094,0.2063037872314453,0
0.4886867523193359,0.2095996856689453,0
0.4891319274902344,0.2095996856689453,0
0.4898151397705078,0.2092580795288086,0
0.4905515670776367,0.2092580795288086,0
0.4919042587280273,0.2104785919189453,0
0.4926269531250000,0.2104785919189453,0
0.4926389694213867,0.2115142822265625,0
0.4939435958862304,0.2113128662109375,0
0.4940906524658203,0.2132755279541016,0
0.4938245773315429,0.2132755279541016,0
0.4937891006469726,0.2117568969726562,0
0.4936397552490234,0.2117568969726562,0
0.4942342758178710,0.2119543075561523,0
0.4943264007568359,0.2119543075561523,0
0.4937845230102539,0.2121900558471680,0
0.4942508697509765,0.2121900558471680,0
0.4937696456909180,0.2112699508666992,0
0.4937547683715820,0.2112699508666992,0
0.4941930770874023,0.2133419036865234,0
0.4938205718994140,0.2133419036865234,0
0.4939006805419922,0.2120246887207031,0
0.4939487457275391,0.2120246887207031,0
0.4948162078857422,0.2125019073486328,0
0.4952116012573242,0.2125019073486328,0
0.4948917388916015,0.2131793975830078,0
0.4957391738891601,0.2131793975830078,0
0.4954719543457031,0.2127748489379883,0
0.4958581924438477,0.2127748489379883,0
0.4966192245483398,0.2152879714965820,0
0.4965648651123047,0.2152879714965820,0
0.4968441009521484,0.2143003463745117,0
0.4971754074096679,0.2143003463745117,0
0.4982997894287109,0.2151826858520508,0
0.4988679885864258,0.2151826858520508,0
0.4987369537353515,0.2161497116088867,0
0.4997016906738281,0.2161497116088867,0
0.4996828079223632,0.2159791946411133,0
0.5001800537109374,0.2159791946411133,0
0.5010017395019531,0.2186702728271484,0
0.5010915756225586,0.2186702728271484,0
0.5014366149902344,0.2178892135620117,0
0.5019098281860351,0.2178892135620117,0
0.5030221939086914,0.2188184738159180,0
0.5037975311279297,0.2188184738159180,0
0.5038198471069336,0.2199691772460937,0
0.5048440933227539,0.2199691772460937,0
0.5049207687377929,0.2199817657470703,0
0.5055324554443359,0.2199817657470703,0
0.5064531326293945,0.2228004455566406,0
0.5065847396850586,0.2228004455566406,0
0.5070253372192383,0.2221292495727539,0
0.5075969696044922,0.2221292495727539,0
0.5087482452392578,0.2231203079223633,0
0.5094434738159179,0.2231203079223633,0
0.5093696594238281,0.2242263793945312,0
0.5104499816894531,0.2242263793945312,0
0.5104248046875000,0.2240982055664062,0
0.5109689712524413,0.2240982055664062,0
0.5118135452270508,0.2268407821655273,0
0.5119411468505859,0.2268407821655273,0
0.5122203826904297,0.2260488510131836,0
0.5127021789550781,0.2260488510131836,0
0.5139089584350586,0.2270410537719726,0
0.5146339416503906,0.2270410537719726,0
0.5145137786865234,0.2280744552612305,0
0.5155843734741211,0.2280744552612305,0
0.5155803680419921,0.2280235290527344,0
0.5161846160888671,0.2280235290527344,0
0.5170177459716797,0.2307592391967773,0
0.5171298980712891,0.2307592391967773,0
0.5175075531005859,0.2300039291381836,0
0.5179407119750976,0.2300039291381836,0
0.5191463470458985,0.2309629440307617,0
0.5198129653930664,0.2309629440307617,0
0.5198501586914063,0.2320152282714844,0
0.5208995819091796,0.2320152282714844,0
0.5208915710449219,0.2319843292236328,0
0.5214414596557617,0.2319843292236328,0
0.5222322463989257,0.2347314834594726,0
0.5223266601562500,0.2347314834594726,0
0.5225955963134765,0.2338233947753906,0
0.5230247497558593,0.2338233947753906,0
0.5241628646850586,0.2347028732299805,0
0.5246738433837891,0.2347028732299805,0
0.5244970321655273,0.2355857849121094,0
0.5253719329833985,0.2355857849121094,0
0.5252191543579101,0.2352550506591797,0
0.5256002426147460,0.2352550506591797,0
0.5262296676635742,0.2375782012939453,0
0.5259458541870117,0.2375782012939453,0
0.5256923675537110,0.2359989166259766,0
0.5254526138305664,0.2359989166259766,0
0.5256517410278320,0.2354810714721680,0
0.5247894287109375,0.2354810714721680,0
0.5228914260864258,0.2337404251098633,0
0.5212469100952148,0.2337404251098633,0
0.5183280944824219,0.2292308807373047,0
0.5150533676147461,0.2292308807373047,0
0.5121768951416016,0.2261438369750977,0
0.5078538894653321,0.2261438369750977,0
0.5042295455932617,0.2190742492675781,0
0.5002847671508789,0.2190742492675781,0
0.4977361679077148,0.2142465591430664,0
0.4946004867553710,0.2142465591430664,0
0.4915758132934570,0.2105558395385742,0
0.4895759582519531,0.2105558395385742,0
0.4873294830322266,0.2069389343261719,0
0.4856454849243164,0.2069389343261719,0
0.4846481323242187,0.2067209243774414,0
0.4829498291015625,0.2067209243774414,0
0.4819421768188477,0.2038032531738281,0
0.4809116363525390,0.2038032531738281,0
0.4810089111328125,0.2030084609985351,0
0.4805379867553711,0.2030084609985351,0
0.4796052932739258,0.2025667190551758,0
0.4796247482299805,0.2025667190551758,0
0.4789037704467773,0.2013599395751953,0
0.4786668777465820,0.2013599395751953,0
0.4788391113281250,0.2028688430786133,0
0.4782674789428711,0.2028688430786133,0
0.4779516220092773,0.2012105941772461,0
0.4777547836303710,0.2012105941772461,0
0.4784225463867187,0.2012489318847656,0
0.4784494400024414,0.2012489318847656,0
0.4778818130493164,0.2014474868774414,0
0.4783206939697265,0.2014474868774414,0
0.4779190063476562,0.2007024765014648,0
0.4780437469482421,0.2007024765014648,0
0.4783601760864258,0.2026199340820312,0
0.4780305862426757,0.2026199340820312,0
0.4779916763305664,0.2012952804565430,0
0.4780855178833008,0.2012952804565430,0
0.4791618347167969,0.2018503189086914,0
0.4795743942260742,0.2018503189086914,0
0.4794244766235352,0.2026582717895508,0
0.4804452896118164,0.2026582717895508,0
0.4805717468261719,0.2029827117919922,0
0.4814935684204101,0.2029827117919922,0
0.4826070785522460,0.2060205459594726,0
0.4832313537597656,0.2060205459594726,0
0.4839426040649414,0.2059186935424805,0
0.4849382400512695,0.2059186935424805,0
0.4874410629272461,0.2094434738159180,0
0.4879039764404297,0.2094509124755859,0
0.4879039764404297,0.2089914321899414,0
0.4889453887939453,0.2091104507446289,0
0.4903764724731445,0.2101507186889648,0
0.4912164688110351,0.2101507186889648,0
0.4909057617187500,0.2108488082885742,0
0.4914316177368164,0.2108488082885742,0
0.4912204742431641,0.2103601455688477,0
0.4914087295532226,0.2103601455688477,0
0.4919328689575195,0.2123159408569336,0
0.4915941238403320,0.2123159408569336,0
0.4913188934326171,0.2108350753784180,0
0.4909687042236328,0.2108350753784180,0
0.4918395996093750,0.2109043121337890,0
0.4920444488525391,0.2109043121337890,0
0.4914070129394531,0.2111417770385742,0
0.4916673660278320,0.2111417770385742,0
0.4912902832031250,0.2104597091674805,0
0.4914865493774414,0.2104597091674805,0
0.4920536041259765,0.2125007629394531,0
0.4918830871582031,0.2125007629394531,0
0.4918842315673828,0.2113655090332031,0
0.4918870925903320,0.2113655090332031,0
0.4930927276611328,0.2119468688964844,0
0.4937009811401367,0.2119468688964844,0
0.4934022903442383,0.2127187728881836,0
0.4940935134887695,0.2127187728881836,0
0.4941638946533203,0.2126220703125000,0
0.4947904586791992,0.2126220703125000,0
0.4956253051757812,0.2152959823608398,0
0.4959194183349609,0.2152959823608398,0
0.4961591720581054,0.2146980285644531,0
0.4965362548828125,0.2146980285644531,0
0.4980960845947265,0.2158447265625000,0
0.4991037368774414,0.2158447265625000,0
0.4991237640380859,0.2170984268188476,0
0.5000867843627930,0.2170984268188476,0
0.5003637313842774,0.2174806594848633,0
0.5013381958007812,0.2174806594848633,0
0.5025043487548828,0.2205059051513672,0
0.5029787063598633,0.2205059051513672,0
0.5034404754638672,0.2202724456787109,0
0.5040395736694335,0.2202724456787109,0
0.5058294296264648,0.2216222763061523,0
0.5069955825805664,0.2216222763061523,0
0.5071397781372070,0.2230819702148437,0
0.5082126617431640,0.2230819702148437,0
0.5085943222045898,0.2236564636230469,0
0.5096088409423828,0.2236564636230469,0
0.5107864379882813,0.2267572402954101,0
0.5113351821899413,0.2267572402954101,0
0.5117946624755859,0.2264390945434570,0
0.5123514175415039,0.2264390945434570,0
0.5140869140625000,0.2277723312377929,0
0.5151580810546875,0.2277723312377929,0
0.5152336120605469,0.2291004180908203,0
0.5162784576416015,0.2291004180908203,0
0.5165508270263671,0.2294179916381836,0
0.5174051284790039,0.2294179916381836,0
0.5184213638305664,0.2323081970214844,0
0.5187406539916992,0.2323081970214844,0
0.5189661026000977,0.2317869186401367,0
0.5193780899047852,0.2317869186401367,0
0.5209676742553710,0.2328649520874023,0
0.5218139648437500,0.2328649520874023,0
0.5217475891113281,0.2338245391845703,0
0.5225515365600586,0.2338245391845703,0
0.5233314514160156,0.2339784622192383,0
0.5238235473632812,0.2349414825439453,0
0.5246446609497070,0.2357694625854492,0
0.5248266220092773,0.2360269546508789,0
0.5263458251953125,0.2367942810058594,0
0.5276046752929687,0.2377252578735352,0
0.5269437789916992,0.2377315521240234,0
0.5288349151611328,0.2379947662353515,0
0.5291662216186523,0.2403202056884766,0
0.5291662216186523,0.2394218444824219,0
0.5304496765136718,0.2394121170043945,0
0.5308473587036132,0.2401233673095703,0
0.5311065673828125,0.2408248901367187,0
0.5309560775756835,0.2405061721801758,0
0.5325599670410156,0.2413730621337891,0
0.5326755523681640,0.2413730621337891,0
0.5322504043579102,0.2412694931030273,0
0.5319351196289063,0.2415264129638672,0
0.5328603744506836,0.2414079666137695,0
0.5310556411743164,0.2404163360595703,0
0.5293745040893555,0.2404163360595703,0
0.5254989624023437,0.2372526168823242,0
0.5231855392456054,0.2349609375000000,0
0.5192035675048828,0.2311683654785156,0
0.5112253189086914,0.2249954223632812,0
0.5040092468261719,0.2220474243164063,0
0.5039011001586914,0.2206575393676758,0
0.4962083816528320,0.2142740249633789,0
0.4936449050903320,0.2119606018066406,0
0.4897470474243164,0.2107835769653320,0
0.4876510620117187,0.2088901519775390,0
0.4851568222045898,0.2068496704101563,0
0.4842264175415039,0.2061595916748047,0
0.4839448928833008,0.2070241928100586,0
0.4821212768554687,0.2048578262329102,0
0.4821590423583984,0.2042804718017578,0
0.4821687698364258,0.2057006835937500,0
0.4816120147705078,0.2049625396728516,0
0.4809837341308594,0.2042381286621094,0
0.4821046829223632,0.2043451309204102,0
0.4820005416870117,0.2057041168212891,0
0.4813837051391601,0.2041866302490234,0
0.4826368331909179,0.2041660308837891,0
0.4826368331909179,0.2047771453857422,0
0.4824640274047851,0.2052520751953125,0
0.4823724746704101,0.2051359176635742,0
0.4839609146118164,0.2058048248291016,0
0.4842990875244140,0.2072731018066406,0
0.4855602264404297,0.2067855834960937,0
0.4859956741333007,0.2075614929199219,0
0.4877128601074219,0.2083482742309570,0
0.4893745422363281,0.2111194610595703,0
0.4910562515258789,0.2106462478637695,0
0.4933158874511718,0.2119382858276367,0
0.4936174392700195,0.2131204605102539,0
0.4954479217529297,0.2149641036987305,0
0.4959548950195312,0.2151832580566406,0
0.4988016128540039,0.2163213729858398,0
0.4995615005493164,0.2168403625488281,0
0.5004730224609375,0.2178457260131836,0
0.4996553421020508,0.2178737640380859,0
0.5012758255004882,0.2184391021728516,0
0.5017318725585938,0.2184391021728516,0
0.5007465362548827,0.2187749862670898,0
0.5007465362548827,0.2186153411865234,0
0.5020425796508788,0.2188785552978516,0
0.5019018173217773,0.2198976516723633,0
0.5012214660644531,0.2186456680297852,0
0.5010921478271484,0.2189535140991211,0
0.5028356552124024,0.2192728042602539,0
0.5024488449096679,0.2207588195800781,0
0.5019098281860351,0.2195915222167969,0
0.5025907516479492,0.2202426910400390,0
0.5037672042846679,0.2214529037475586,0
0.5037609100341797,0.2216960906982422,0
0.5038072586059570,0.2208967208862305,0
0.5043972015380859,0.2209728240966797,0
0.5057819366455077,0.2233325958251953,0
0.5057945251464844,0.2233325958251953,0
0.5064388275146484,0.2226253509521484,0
0.5068073272705078,0.2227998733520508,0
0.5084300994873047,0.2253644943237305,0
0.5086515426635742,0.2251470565795898,0
0.5098892211914062,0.2258193969726562,0
0.5108190536499023,0.2252603530883789,0
0.5119846343994140,0.2279251098632812,0
0.5120269775390625,0.2272579193115234,0
0.5133842468261719,0.2277814865112305,0
0.5148971557617187,0.2277814865112305,0
0.5155500411987305,0.2305355072021484,0
0.5155500411987305,0.2299919128417969,0
0.5170749664306641,0.2306722640991211,0
0.5184785842895507,0.2312170028686523,0
0.5193334579467773,0.2330102920532227,0
0.5202318191528320,0.2326955795288086,0
0.5215616226196289,0.2331602096557617,0
0.5221097946166992,0.2341341018676758,0
0.5226842880249023,0.2351623535156250,0
0.5227581024169922,0.2350845336914062,0
0.5251401901245117,0.2361007690429687,0
0.5251401901245117,0.2363370895385742,0
0.5256139755249023,0.2372125625610352,0
0.5255081176757812,0.2370838165283203,0
0.5278724670410156,0.2378173828125000,0
0.5282054901123047,0.2383197784423828,0
0.5288400650024414,0.2390853881835937,0
0.5279748916625976,0.2391345977783203,0
0.5299798965454101,0.2398870468139648,0
0.5301635742187499,0.2413467407226562,0
0.5299049377441406,0.2404649734497070,0
0.5303312301635742,0.2407155990600586,0
0.5323516845703125,0.2414342880249023,0
0.5320964813232422,0.2429815292358398,0
0.5318698883056641,0.2420980453491211,0
0.5327327728271484,0.2427360534667969,0
0.5339344024658202,0.2427429199218750,0
0.5339344024658202,0.2443067550659180,0
0.5334772109985352,0.2434135437011719,0
0.5343463897705077,0.2440727233886719,0
0.5355016708374023,0.2454940795898437,0
0.5352985382080078,0.2454940795898437,0
0.5358438491821289,0.2451221466064453,0
0.5363988876342773,0.2446237564086914,0
0.5368629455566406,0.2465343475341797,0
0.5366546630859375,0.2458087921142578,0
0.5367547988891601,0.2451667785644531,0
0.5377412796020508,0.2451667785644531,0
0.5363285064697265,0.2465417861938476,0
0.5363285064697265,0.2450454711914062,0
0.5345083236694336,0.2431262969970703,0
0.5336820602416992,0.2416511535644531,0
0.5280618667602539,0.2383432388305664,0
0.5247304916381835,0.2382156372070312,0
0.5167184829711914,0.2323225021362305,0
0.5175796508789062,0.2296028137207031,0
0.5085634231567383,0.2236181259155273,0
0.5042301177978515,0.2200841903686523,0
0.4987993240356445,0.2155076980590820,0
0.4958753585815430,0.2158927917480469,0
0.4911180496215820,0.2125648498535156,0
0.4904560089111328,0.2110685348510742,0
0.4890129089355468,0.2093673706054688,0
0.4878204345703125,0.2093673706054688,0
0.4860666275024414,0.2082263946533203,0
0.4852552413940430,0.2076267242431641,0
0.4857198715209960,0.2071678161621094,0
0.4850664138793945,0.2079923629760742,0
0.4837572097778320,0.2063810348510742,0
0.4837388992309570,0.2066528320312500,0
0.4849256515502929,0.2067770004272461,0
0.4846584320068359,0.2078882217407227,0
0.4837629318237304,0.2067792892456055,0
0.4850000381469726,0.2070299148559570,0
0.4852775573730468,0.2083517074584961,0
0.4847007751464844,0.2074241638183594,0
0.4855253219604492,0.2074544906616211,0
0.4871337890625000,0.2081079483032227,0
0.4869409561157226,0.2088827133178711,0
0.4879766464233398,0.2088827133178711,0
0.4883749008178710,0.2098777770996094,0
0.4896337509155273,0.2098777770996094,0
0.4908536911010742,0.2128028869628906,0
0.4916456222534180,0.2128028869628906,0
0.4922407150268555,0.2133247375488281,0
0.4935791015625000,0.2133247375488281,0
0.4961614608764648,0.2152793884277344,0
0.4972675323486328,0.2152793884277344,0
0.4976789474487304,0.2170085906982422,0
0.4991088867187500,0.2170085906982422,0
0.4996135711669922,0.2181518554687500,0
0.5007488250732421,0.2181518554687500,0
0.5015899658203125,0.2205162048339844,0
0.5017049789428710,0.2205162048339844,0
0.5014446258544921,0.2198535919189453,0
0.5017959594726562,0.2198535919189453,0
0.5034748077392578,0.2202833175659180,0
0.5031183242797851,0.2212749481201172,0
0.5020975112915039,0.2201906204223633,0
0.5018039703369140,0.2200469970703125,0
0.5033660888671875,0.2199554443359375,0
0.5033660888671875,0.2201545715332031,0
0.5023933410644531,0.2212245941162109,0
0.5016729354858398,0.2198587417602539,0
0.5016443252563476,0.2198587417602539,0
0.5032396316528320,0.2199863433837891,0
0.5031028747558594,0.2199863433837891,0
0.5024379730224610,0.2201465606689453,0
0.5029512405395508,0.2201465606689453,0
0.5026845932006836,0.2202043533325195,0
0.5032802581787109,0.2202043533325195,0
0.5036029815673828,0.2218173980712891,0
0.5034650802612305,0.2218173980712891,0
0.5030731201171875,0.2210872650146484,0
0.5035034179687500,0.2210872650146484,0
0.5054615020751952,0.2218151092529297,0
0.5056280136108399,0.2218151092529297,0
0.5054002761840820,0.2225063323974609,0
0.5062557220458984,0.2225063323974609,0
0.5063272476196289,0.2231500625610351,0
0.5072782516479492,0.2231500625610351,0
0.5079351425170898,0.2252294540405273,0
0.5080650329589843,0.2252294540405273,0
0.5079975128173828,0.2248947143554687,0
0.5086360931396484,0.2248947143554687,0
0.5107807159423828,0.2259887695312500,0
0.5112716674804687,0.2259887695312500,0
0.5111749649047851,0.2269689559936523,0
0.5111846923828125,0.2269689559936523,0
0.5124807357788086,0.2278249740600586,0
0.5135616302490235,0.2278249740600586,0
0.5142860412597656,0.2301126480102539,0
0.5145790100097656,0.2301126480102539,0
0.5145086288452149,0.2298974990844727,0
0.5152971267700195,0.2298974990844727,0
0.5174966812133789,0.2310207366943359,0
0.5179492950439453,0.2310207366943359,0
0.5178955078124999,0.2320461273193359,0
0.5189008712768555,0.2320461273193359,0
0.5192247390747070,0.2328924179077148,0
0.5203216552734374,0.2328924179077148,0
0.5209676742553710,0.2350839614868164,0
0.5211845397949219,0.2350839614868164,0
0.5210363388061523,0.2347818374633789,0
0.5217916488647460,0.2347818374633789,0
0.5240026473999023,0.2358232498168945,0
0.5243379592895507,0.2358232498168945,0
0.5241142272949219,0.2366615295410156,0
0.5250480651855468,0.2366615295410156,0
0.5251733779907226,0.2373435974121094,0
0.5261060714721679,0.2373435974121094,0
0.5266296386718750,0.2392902374267578,0
0.5267829895019531,0.2392902374267578,0
0.5265340805053711,0.2388759613037109,0
0.5271154403686523,0.2388759613037109,0
0.5291913986206055,0.2397136688232422,0
0.5294168472290038,0.2397136688232422,0
0.5291061401367188,0.2403499603271484,0
0.5299398422241210,0.2403499603271484,0
0.5300319671630859,0.2409135818481445,0
0.5308805465698242,0.2409135818481445,0
0.5313188552856445,0.2427526473999023,0
0.5312021255493163,0.2427526473999023,0
0.5308576583862304,0.2420465469360351,0
0.5312788009643554,0.2420465469360351,0
0.5333536148071288,0.2426713943481445,0
0.5333467483520508,0.2426713943481445,0
0.5328969955444336,0.2431234359741211,0
0.5335304260253906,0.2431234359741211,0
0.5334863662719727,0.2434473037719727,0
0.5340946197509765,0.2434473037719727,0
0.5342697143554688,0.2447919845581055,0
0.5337604522705078,0.2447919845581055,0
0.5328678131103516,0.2433929443359375,0
0.5324380874633788,0.2433929443359375,0
0.5334577560424805,0.2423830032348633,0
0.5319276809692383,0.2423830032348633,0
0.5296365737915039,0.2400444030761719,0
0.5275182723999023,0.2400444030761719,0
0.5246257781982422,0.2360206604003906,0
0.5214941024780273,0.2360206604003906,0
0.5180065155029296,0.2316793441772461,0
0.5132761001586914,0.2316793441772461,0
0.5089908599853515,0.2247510910034180,0
0.5049299240112305,0.2247510910034180,0
0.5033798217773438,0.2194782257080078,0
0.4995151519775390,0.2194782257080078,0
0.4961820602416992,0.2151323318481445,0
0.4938903808593750,0.2151323318481445,0
0.4917423248291015,0.2121637344360351,0
0.4903673171997070,0.2121637344360351,0
0.4892801284790039,0.2111778259277344,0
0.4876247406005859,0.2111778259277344,0
0.4862016677856445,0.2088277816772461,0
0.4854846954345703,0.2088277816772461,0
0.4866880416870117,0.2081508636474609,0
0.4858818054199219,0.2081508636474609,0
0.4849576950073242,0.2076353073120117,0
0.4849657058715820,0.2076353073120117,0
0.4845949172973633,0.2073743820190430,0
0.4849199295043945,0.2073743820190430,0
0.4849496841430664,0.2083093643188476,0
0.4844512939453125,0.2083093643188476,0
0.4838356018066406,0.2073440551757812,0
0.4839786529541015,0.2073440551757812,0
0.4858119964599609,0.2076232910156250,0
0.4855195999145507,0.2076232910156250,0
0.4850543975830078,0.2077325820922852,0
0.4854721069335937,0.2077325820922852,0
0.4853891372680664,0.2080324172973633,0
0.4860185623168945,0.2080324172973633,0
0.4863538742065430,0.2093461990356445,0
0.4862668991088867,0.2093461990356445,0
0.4859504699707031,0.2090217590332031,0
0.4866147994995117,0.2090217590332031,0
0.4889087677001953,0.2100534439086914,0
0.4894140243530273,0.2100534439086914,0
0.4895410537719727,0.2113941192626953,0
0.4909893035888672,0.2113941192626953,0
0.4917892456054687,0.2130918502807617,0
0.4935905456542968,0.2130918502807617,0
0.4947355270385742,0.2158802032470703,0
0.4956304550170898,0.2158802032470703,0
0.4959571838378906,0.2166435241699219,0
0.4972927093505859,0.2166435241699219,0
0.5000547409057617,0.2182960510253906,0
0.5006509780883789,0.2182960510253906,0
0.5007539749145508,0.2195131301879883,0
0.5017541885375977,0.2195131301879883,0
0.5019744873046875,0.2203577041625976,0
0.5028854370117187,0.2203577041625976,0
0.5031629562377929,0.2216812133789063,0
0.5029066085815429,0.2216812133789063,0
0.5022869110107422,0.2209293365478515,0
0.5024070739746094,0.2209293365478515,0
0.5041700363159179,0.2209980010986328,0
0.5036676406860351,0.2209980010986328,0
0.5028854370117187,0.2208034515380859,0
0.5030485153198242,0.2208034515380859,0
0.5026302337646484,0.2207519531250000,0
0.5031217575073242,0.2207519531250000,0
0.5030502319335938,0.2215227127075195,0
0.5026159286499023,0.2215227127075195,0
0.5018995285034179,0.2206357955932617,0
0.5021232604980469,0.2206357955932617,0
0.5040092468261719,0.2209590911865234,0
0.5037963867187499,0.2209590911865234,0
0.5032133102416992,0.2212549209594727,0
0.5037849426269531,0.2212549209594727,0
0.5038255691528321,0.2217372894287109,0
0.5047988891601562,0.2217372894287109,0
0.5050008773803710,0.2231603622436523,0
0.5048818588256836,0.2231603622436523,0
0.5046077728271484,0.2229274749755859,0
0.5052600860595703,0.2229274749755859,0
0.5075609207153320,0.2238498687744141,0
0.5076999664306641,0.2238498687744141,0
0.5074928283691406,0.2246532440185547,0
0.5084833145141602,0.2246532440185547,0
0.5088094711303711,0.2256843566894531,0
0.5101284027099610,0.2256843566894531,0
0.5105953216552734,0.2275033950805664,0
0.5107492446899414,0.2275033950805664,0
0.5106880187988281,0.2276567459106445,0
0.5116024017333984,0.2276567459106445,0
0.5141286849975586,0.2288618087768555,0
0.5144193649291992,0.2288618087768555,0
0.5143667221069336,0.2298625946044922,0
0.5154647827148438,0.2298625946044922,0
0.5158487319946289,0.2310670852661133,0
0.5173553466796875,0.2310670852661133,0
0.5178726196289062,0.2329833984375000,0
0.5180894851684570,0.2329833984375000,0
0.5179733276367188,0.2332094192504883,0
0.5188934326171875,0.2332094192504883,0
0.5215072631835938,0.2343750000000000,0
0.5217670440673828,0.2343750000000000,0
0.5216480255126953,0.2352905273437500,0
0.5226934432983398,0.2352905273437500,0
0.5230550765991211,0.2364624023437500,0
0.5244426727294922,0.2364624023437500,0
0.5248031616210938,0.2381813049316406,0
0.5250011444091797,0.2381813049316406,0
0.5246698379516601,0.2382225036621094,0
0.5255064010620117,0.2382225036621094,0
0.5280241012573242,0.2391534805297851,0
0.5280567169189453,0.2391534805297851,0
0.5277088165283202,0.2398498535156250,0
0.5286415100097656,0.2398498535156250,0
0.5288681030273438,0.2407688140869141,0
0.5300886154174804,0.2407688140869141,0
0.5303409576416015,0.2421649932861328,0
0.5302053451538086,0.2421649932861328,0
0.5298757553100586,0.2420459747314453,0
0.5305704116821289,0.2420459747314453,0
0.5329542160034180,0.2427938461303711,0
0.5328334808349610,0.2427938461303711,0
0.5324266433715820,0.2432722091674805,0
0.5332168579101563,0.2432722091674805,0
0.5332077026367187,0.2440343856811523,0
0.5342914581298828,0.2440343856811523,0
0.5344030380249023,0.2451839447021484,0
0.5341129302978516,0.2451839447021484,0
0.5336837768554688,0.2448915481567383,0
0.5341175079345702,0.2448915481567383,0
0.5363903045654297,0.2453847885131836,0
0.5360567092895507,0.2453847885131836,0
0.5354496002197265,0.2455450057983398,0
0.5359050750732421,0.2455450057983398,0
0.5356184005737304,0.2457292556762695,0
0.5362174987792968,0.2457292556762695,0
0.5356412887573242,0.2458145141601562,0
0.5342050552368164,0.2458145141601562,0
0.5323127746582031,0.2434301376342773,0
0.5306367874145508,0.2434301376342773,0
0.5304319381713867,0.2401250839233398,0
0.5266639709472656,0.2401250839233398,0
0.5223833084106445,0.2347555160522461,0
0.5183303833007812,0.2347555160522461,0
0.5138420104980469,0.2283617019653320,0
0.5099132537841796,0.2283617019653320,0
0.5056589126586913,0.2225063323974609,0
0.5007534027099609,0.2225063323974609,0
0.4966346740722656,0.2164060592651367,0
0.4934446334838867,0.2164060592651367,0
0.4929948806762695,0.2124990463256836,0
0.4899908065795898,0.2124990463256836,0
0.4875366210937500,0.2096368789672851,0
0.4861822128295898,0.2096368789672851,0
0.4846973419189453,0.2079105377197266,0
0.4842309951782227,0.2079105377197266,0
0.4831752777099609,0.2070957183837891,0
0.4817253112792969,0.2070957183837891,0
0.4805042266845703,0.2055273056030273,0
0.4801248550415039,0.2055273056030273,0
0.4816474914550781,0.2049722671508789,0
0.4807514190673828,0.2049722671508789,0
0.4797775268554687,0.2044172286987305,0
0.4798696517944336,0.2044172286987305,0
0.4794977188110351,0.2044458389282227,0
0.4800413131713867,0.2044458389282227,0
0.4796939849853515,0.2047033309936523,0
0.4790382385253906,0.2047033309936523,0
0.4783252716064453,0.2040796279907227,0
0.4784408569335937,0.2040796279907227,0
0.4803783416748046,0.2041259765625000,0
0.4797500610351562,0.2041259765625000,0
0.4790370941162109,0.2039600372314453,0
0.4793426513671875,0.2039600372314453,0
0.4792579650878906,0.2042587280273437,0
0.4799812316894531,0.2042587280273437,0
0.4798089981079101,0.2048326492309570,0
0.4794067382812500,0.2048326492309570,0
0.4789638519287109,0.2046060562133789,0
0.4793975830078125,0.2046060562133789,0
0.4817430496215820,0.2052377700805664,0
0.4816223144531250,0.2052377700805664,0
0.4815130233764648,0.2060520172119140,0
0.4826900482177734,0.2060520172119140,0
0.4832450866699218,0.2075408935546875,0
0.4849914550781250,0.2075408935546875,0
0.4857433319091797,0.2094629287719726,0
0.4862354278564453,0.2094629287719726,0
0.4878650665283203,0.2105112075805664,0
0.4884023666381836,0.2105112075805664,0
0.4907283782958984,0.2120040893554687,0
0.4911792755126953,0.2120040893554687,0
0.4912170410156250,0.2132108688354492,0
0.4924226760864258,0.2132108688354492,0
0.4928260803222656,0.2144479751586914,0
0.4941747665405273,0.2144479751586914,0
0.4943876266479492,0.2155323028564453,0
0.4941438674926757,0.2155323028564453,0
0.4936380386352539,0.2154670715332031,0
0.4940557479858398,0.2154670715332031,0
0.4962535858154297,0.2157423019409180,0
0.4956670761108398,0.2157423019409180,0
0.4949993133544922,0.2156713485717773,0
0.4954124450683594,0.2156713485717773,0
0.4952390670776367,0.2160409927368164,0
0.4960212707519531,0.2160409927368164,0
0.4957780838012695,0.2164695739746094,0
0.4952888488769531,0.2164695739746094,0
0.4947486877441406,0.2162618637084961,0
0.4950908660888672,0.2162618637084961,0
0.4973115921020508,0.2165868759155273,0
0.4969161987304687,0.2165868759155273,0
0.4964132308959961,0.2168809890747070,0
0.4970500946044922,0.2168809890747070,0
0.4971776962280273,0.2176540374755859,0
0.4983793258666992,0.2176540374755859,0
0.4984542846679687,0.2186141967773438,0
0.4983232498168945,0.2186141967773438,0
0.4981252670288085,0.2189226150512695,0
0.4987987518310547,0.2189226150512695,0
0.5013324737548828,0.2197511672973633,0
0.5008392333984375,0.2197511672973633,0
0.5010486602783203,0.2204217910766602,0
0.5007791519165039,0.2210632324218750,0
0.5040344238281250,0.2217378616333008,0
0.5043073654174804,0.2217378616333008,0
0.5039239883422851,0.2226310729980469,0
0.5048017501831055,0.2226310729980469,0
0.5051610946655273,0.2237926483154297,0
0.5066047668457031,0.2237926483154297,0
0.5068405151367187,0.2249313354492188,0
0.5071500778198242,0.2249313354492188,0
0.5069469451904297,0.2257421493530273,0
0.5075471878051757,0.2257421493530273,0
0.5103807449340820,0.2265850067138672,0
0.5106931686401367,0.2265850067138672,0
0.5103481292724609,0.2274873733520508,0
0.5112997055053711,0.2274873733520508,0
0.5116487503051758,0.2287033081054687,0
0.5131278991699219,0.2287033081054687,0
0.5132989883422852,0.2298294067382812,0
0.5136257171630859,0.2298294067382812,0
0.5133859634399414,0.2306213378906250,0
0.5139215469360351,0.2306213378906250,0
0.5168254852294921,0.2313760757446289,0
0.5170412063598633,0.2313760757446289,0
0.5166532516479492,0.2322835922241211,0
0.5175579071044921,0.2322835922241211,0
0.5178989410400391,0.2333095550537109,0
0.5192699432373047,0.2333095550537109,0
0.5194055557250976,0.2343120574951172,0
0.5196041107177735,0.2343120574951172,0
0.5194129943847656,0.2350725173950195,0
0.5198598861694336,0.2350725173950195,0
0.5227163314819335,0.2357717514038086,0
0.5228616714477539,0.2357717514038086,0
0.5223907470703125,0.2365465164184570,0
0.5232793807983398,0.2365465164184570,0
0.5235815048217773,0.2376686096191406,0
0.5249370574951172,0.2376686096191406,0
0.5249971389770508,0.2384880065917969,0
0.5251470565795898,0.2384880065917969,0
0.5248071670532226,0.2391529083251953,0
0.5251630783081055,0.2391529083251953,0
0.5279291152954101,0.2396638870239258,0
0.5279571533203125,0.2396638870239258,0
0.5273191452026367,0.2403162002563476,0
0.5280836105346679,0.2403162002563476,0
0.5281116485595703,0.2410411834716797,0
0.5293207168579102,0.2410411834716797,0
0.5289716720581055,0.2412511825561523,0
0.5284715652465820,0.2412511825561523,0
0.5276132583618164,0.2410039901733398,0
0.5269998550415039,0.2410039901733398,0
0.5285768508911133,0.2396570205688476,0
0.5267698287963867,0.2396570205688476,0
0.5240135192871094,0.2370546340942383,0
0.5216629028320312,0.2370546340942383,0
0.5185117721557617,0.2329296112060547,0
0.5156267166137695,0.2329296112060547,0
0.5114810943603515,0.2272636413574219,0
0.5069108963012695,0.2272636413574219,0
0.5024808883666992,0.2214437484741211,0
0.4982957839965820,0.2214437484741211,0
0.4973093032836914,0.2159843444824219,0
0.4935327529907226,0.2159843444824219,0
0.4900978088378906,0.2120578765869141,0
0.4880075454711914,0.2120578765869141,0
0.4860431671142578,0.2096134185791016,0
0.4852226257324219,0.2096134185791016,0
0.4835826873779296,0.2075323104858398,0
0.4819759368896484,0.2075323104858398,0
0.4804922103881836,0.2062580108642578,0
0.4794954299926757,0.2062580108642578,0
0.4811319351196289,0.2051044464111328,0
0.4799921035766601,0.2051044464111328,0
0.4786085128784179,0.2042976379394531,0
0.4783733367919922,0.2042976379394531,0
0.4778326034545898,0.2040115356445313,0
0.4782148361206054,0.2040115356445313,0
0.4774246215820312,0.2033786773681641,0
0.4766515731811523,0.2033786773681641,0
0.4757331848144531,0.2030170440673828,0
0.4752880096435547,0.2030170440673828,0
0.4772512435913085,0.2024293899536133,0
0.4765439987182617,0.2024293899536133,0
0.4753555297851562,0.2020906448364258,0
0.4754545211791992,0.2020906448364258,0
0.4750339508056640,0.2021306991577148,0
0.4756719589233398,0.2021306991577148,0
0.4751157760620117,0.2017398834228516,0
0.4745824813842773,0.2017398834228516,0
0.4740011215209960,0.2018634796142578,0
0.4738386154174805,0.2018634796142578,0
0.4761194229125976,0.2017885208129883,0
0.4758041381835937,0.2017885208129883,0
0.4751941680908203,0.2021512985229492,0
0.4759471893310547,0.2021512985229492,0
0.4761846542358398,0.2032173156738281,0
0.4778017044067382,0.2032173156738281,0
0.4779361724853515,0.2041585922241211,0
0.4783744812011719,0.2041585922241211,0
0.4786211013793945,0.2056325912475586,0
0.4795429229736328,0.2056325912475586,0
0.4825567245483398,0.2067295074462891,0
0.4831443786621094,0.2067295074462891,0
0.4829200744628906,0.2079740524291992,0
0.4830974578857422,0.2085508346557617,0
0.4867023468017578,0.2093925476074219,0
0.4867023468017578,0.2096128463745117,0
0.4869283676147461,0.2101369857788086,0
0.4859670639038086,0.2107452392578125,0
0.4885608673095703,0.2108762741088867,0
0.4873626708984375,0.2105770111083984,0
0.4877391815185547,0.2108922958374023,0
0.4875188827514648,0.2112682342529297,0
0.4878261566162109,0.2110130310058594,0
0.4874702453613281,0.2109346389770508,0
0.4878009796142578,0.2117065429687500,0
0.4888864517211914,0.2115245819091797,0
0.4878799438476562,0.2114976882934570,0
0.4880504608154297,0.2114433288574219,0
0.4886192321777343,0.2122261047363281,0
0.4903026580810547,0.2119709014892578,0
0.4893047332763671,0.2125139236450195,0
0.4894557952880859,0.2131971359252930,0
0.4902099609375000,0.2135862350463867,0
0.4915157318115234,0.2139106750488281,0
0.4915065765380859,0.2138368606567383,0
0.4925542831420898,0.2152982711791992,0
0.4946159362792968,0.2152547836303711,0
0.4939933776855469,0.2156667709350586,0
0.4940168380737304,0.2169651031494141,0
0.4953895568847656,0.2174428939819336,0
0.4968755722045898,0.2184803009033203,0
0.4980199813842773,0.2184087753295898,0
0.4970718383789062,0.2191595077514648,0
0.5005353927612305,0.2198987960815430,0
0.4999111175537109,0.2207914352416992,0
0.5002264022827149,0.2210134506225586,0
0.5015304565429687,0.2215730667114258,0
0.5031927108764648,0.2222087860107422,0
0.5031927108764648,0.2226631164550781,0
0.5046855926513671,0.2244255065917969,0
0.5068136215209961,0.2254926681518555,0
0.5063398361206054,0.2248706817626953,0
0.5068553924560547,0.2262331008911133,0
0.5076610565185546,0.2267389297485352,0
0.5092329025268555,0.2271612167358398,0
0.5092626571655273,0.2271062850952148,0
0.5103927612304687,0.2286981582641602,0
0.5124074935913085,0.2286712646484375,0
0.5117345809936523,0.2289167404174804,0
0.5117225646972656,0.2303031921386719,0
0.5130586624145508,0.2306774139404297,0
0.5143753051757812,0.2314939498901367,0
0.5141172409057617,0.2312850952148438,0
0.5142374038696289,0.2319173812866211,0
0.5172237396240235,0.2324071884155273,0
0.5163883209228516,0.2324071884155273,0
0.5161199569702148,0.2328557968139648,0
0.5161199569702148,0.2334417343139648,0
0.5185461044311523,0.2331624984741211,0
0.5173851013183594,0.2329536437988281,0
0.5152587890625000,0.2320026397705078,0
0.5141223907470703,0.2323591232299805,0
0.5109575271606445,0.2295845031738281,0
0.5108076095581054,0.2273225784301758,0
0.5036779403686523,0.2232255935668945,0
0.5007854461669922,0.2204103469848633,0
0.4935802459716797,0.2147701263427734,0
0.4935802459716797,0.2144514083862305,0
0.4860351562500000,0.2103218078613281,0
0.4838447570800781,0.2086492538452148,0
0.4796390533447266,0.2048349380493164,0
0.4773576736450195,0.2048349380493164,0
0.4748165130615234,0.2033180236816406,0
0.4748165130615234,0.2023984909057617,0
0.4730409622192382,0.2004049301147461,0
0.4715772628784179,0.1993738174438477,0
0.4702114105224609,0.1993560791015625,0
0.4710834503173828,0.1984193801879883,0
0.4683563232421875,0.1975473403930664,0
0.4683563232421875,0.1977687835693359,0
0.4677995681762695,0.1977132797241211,0
0.4687923431396484,0.1971920013427734,0
0.4668348312377930,0.1966587066650391,0
0.4661373138427734,0.1966587066650391,0
0.4677961349487305,0.1968069076538086,0
0.4677961349487305,0.1964092254638672,0
0.4659221649169922,0.1960750579833984,0
0.4655376434326172,0.1959709167480469,0
0.4673870086669922,0.1959972381591797,0
0.4663616180419922,0.1959972381591797,0
0.4656583786010742,0.1960933685302734,0
0.4656583786010742,0.1965797424316406,0
0.4679615020751953,0.1965677261352539,0
0.4669984817504882,0.1971067428588867,0
0.4671621322631836,0.1973579406738281,0
0.4676513671875000,0.1979249954223633,0
0.4704757690429687,0.1983449935913086,0
0.4700180053710937,0.1987506866455078,0
0.4709403991699219,0.2006286621093750,0
0.4723022460937500,0.2015991210937500,0
0.4742929458618164,0.2024459838867188,0
0.4746831893920898,0.2016815185546875,0
0.4758275985717773,0.2038032531738281,0
0.4765233993530273,0.2040985107421875,0
0.4779390335083007,0.2042169570922852,0
0.4780300140380859,0.2042169570922852,0
0.4788311004638672,0.2055713653564453,0
0.4788311004638672,0.2056623458862305,0
0.4794897079467773,0.2051570892333984,0
0.4792625427246093,0.2052921295166016,0
0.4797163009643555,0.2062860488891602,0
0.4797163009643555,0.2057910919189453,0
0.4802536010742187,0.2056823730468750,0
0.4797294616699219,0.2062871932983398,0
0.4799978256225585,0.2066625595092773,0
0.4812732696533203,0.2064960479736328,0
0.4809568405151367,0.2061252593994141,0
0.4808349609375000,0.2076473236083984,0
0.4816635131835937,0.2079013824462891,0
0.4825178146362304,0.2074796676635742,0
0.4825178146362304,0.2074373245239258,0
0.4825790405273437,0.2088621139526367,0
0.4833921432495117,0.2094074249267578,0
0.4844524383544921,0.2096357345581055,0
0.4844696044921875,0.2088495254516602,0
0.4852111816406250,0.2106410980224609,0
0.4858423233032226,0.2108184814453125,0
0.4870553970336914,0.2107944488525391,0
0.4872076034545898,0.2107944488525391,0
0.4884899139404297,0.2132257461547852,0
0.4884899139404297,0.2128767013549805,0
0.4898374557495117,0.2128423690795898,0
0.4901138305664062,0.2133716583251953,0
0.4917011260986328,0.2151952743530273,0
0.4935350418090820,0.2151952743530273,0
0.4936397552490234,0.2153760910034180,0
0.4936397552490234,0.2162372589111328,0
0.4950725555419921,0.2177850723266601,0
0.4972503662109375,0.2177770614624023,0
0.4969316482543945,0.2183275222778320,0
0.4980674743652344,0.2186777114868164,0
0.5002367019653320,0.2201751708984375,0
0.5004009246826172,0.2201351165771484,0
0.5001291275024414,0.2209997177124023,0
0.5004850387573242,0.2209997177124023,0
0.5030153274536132,0.2231620788574219,0
0.5028694152832031,0.2242956161499023,0
0.5056320190429687,0.2250566482543945,0
0.5088706970214844,0.2264133453369140,0
0.5080038070678711,0.2264133453369140,0
0.5084896087646484,0.2275794982910156,0
0.5089084625244140,0.2286117553710937,0
0.5112012863159180,0.2281745910644531,0
0.5119388580322265,0.2289596557617187,0
0.5112419128417969,0.2302099227905273,0
0.5142923355102539,0.2303661346435547,0
0.5137979507446289,0.2303661346435547,0
0.5136829376220703,0.2310195922851562,0
0.5147037506103516,0.2310195922851562,0
0.5149137496948242,0.2323528289794922,0
0.5166194915771484,0.2323528289794922,0
0.5159957885742187,0.2320478439331055,0
0.5157680511474609,0.2320478439331055,0
0.5162996292114258,0.2339149475097656,0
0.5166561126708984,0.2339149475097656,0
0.5185953140258789,0.2334188461303711,0
0.5174543380737304,0.2334188461303711,0
0.5164724349975586,0.2327854156494140,0
0.5162704467773437,0.2327854156494140,0
0.5148988723754883,0.2317039489746094,0
0.5141693115234375,0.2317039489746094,0
0.5108688354492187,0.2272825241088867,0
0.5069469451904297,0.2272825241088867,0
0.5038501739501953,0.2235929489135742,0
0.4997205734252930,0.2235929489135742,0
0.4977338790893555,0.2169347763061523,0
0.4923677444458008,0.2169347763061523,0
0.4882244110107422,0.2111709594726562,0
0.4849021911621094,0.2111709594726562,0
0.4818071365356445,0.2072364807128906,0
0.4801248550415039,0.2072364807128906,0
0.4770423889160156,0.2028293609619141,0
0.4743089675903320,0.2028293609619141,0
0.4730220794677734,0.2018674850463867,0
0.4714805603027343,0.2018674850463867,0
0.4720367431640625,0.1993331909179688,0
0.4698949813842773,0.1993331909179688,0
0.4686161041259765,0.1978683471679688,0
0.4675758361816406,0.1978683471679688,0
0.4673263549804687,0.1974798202514648,0
0.4677886962890625,0.1974798202514648,0
0.4663032531738281,0.1957357406616211,0
0.4652057647705078,0.1957357406616211,0
0.4650993347167969,0.1965465545654297,0
0.4647382736206054,0.1965465545654297,0
0.4660165786743164,0.1953042984008789,0
0.4646558761596680,0.1953042984008789,0
0.4639331817626953,0.1947996139526367,0
0.4641031265258789,0.1947996139526367,0
0.4637105941772461,0.1949666976928711,0
0.4645013809204102,0.1949666976928711,0
0.4633541107177734,0.1937135696411133,0
0.4625432968139648,0.1937135696411133,0
0.4627058029174804,0.1948785781860352,0
0.4626880645751953,0.1948785781860352,0
0.4640790939331054,0.1939682006835937,0
0.4630279541015625,0.1939682006835937,0
0.4626342773437500,0.1938743591308594,0
0.4631618499755859,0.1938743591308594,0
0.4629461288452148,0.1945466995239258,0
0.4642244338989258,0.1945466995239258,0
0.4635669708251953,0.1938663482666016,0
0.4632745742797851,0.1938663482666016,0
0.4640762329101562,0.1960447311401367,0
0.4647445678710938,0.1960447311401367,0
0.4667507171630859,0.1961523056030273,0
0.4665967941284179,0.1961523056030273,0
0.4668949127197266,0.1971267700195312,0
0.4682516098022461,0.1971267700195312,0
0.4688718795776367,0.1989194869995117,0
0.4708562850952148,0.1989194869995117,0
0.4706611633300781,0.1990636825561523,0
0.4709901809692383,0.1990636825561523,0
0.4720104217529297,0.2017919540405273,0
0.4727794647216796,0.2017919540405273,0
0.4748119354248047,0.2017759323120117,0
0.4744342803955078,0.2017759323120117,0
0.4744113922119140,0.2022903442382812,0
0.4752508163452148,0.2022903442382812,0
0.4752376556396484,0.2030725479125977,0
0.4764570236206054,0.2030725479125977,0
0.4755620956420898,0.2022090911865234,0
0.4750974655151367,0.2022090911865234,0
0.4755746841430664,0.2040035247802734,0
0.4756479263305664,0.2040035247802734,0
0.4771041870117188,0.2032201766967773,0
0.4763071060180664,0.2032201766967773,0
0.4759723663330078,0.2032367706298828,0
0.4765285491943359,0.2032367706298828,0
0.4763923645019531,0.2039377212524414,0
0.4776163101196289,0.2039377212524414,0
0.4767253875732422,0.2030387878417969,0
0.4764198303222656,0.2030387878417969,0
0.4770458221435547,0.2050901412963867,0
0.4779899597167969,0.2045288085937500,0
0.4781679153442382,0.2048887252807617,0
0.4790084838867187,0.2048887252807617,0
0.4791761398315429,0.2059690475463867,0
0.4806409835815429,0.2059690475463867,0
0.4801328659057617,0.2055015563964844,0
0.4800493240356445,0.2055015563964844,0
0.4809202194213867,0.2080707550048828,0
0.4815187454223633,0.2080707550048828,0
0.4833887100219726,0.2079626083374023,0
0.4831329345703125,0.2079626083374023,0
0.4833755493164062,0.2087305068969726,0
0.4844884872436523,0.2087305068969726,0
0.4848678588867187,0.2102199554443359,0
0.4865879058837890,0.2102199554443359,0
0.4860786437988281,0.2100339889526367,0
0.4862766265869141,0.2100339889526367,0
0.4875240325927734,0.2129796981811523,0
0.4882650375366211,0.2129796981811523,0
0.4901945114135742,0.2129053115844727,0
0.4900365829467773,0.2129053115844727,0
0.4903375625610351,0.2137516021728516,0
0.4914464950561523,0.2137516021728516,0
0.4918504714965820,0.2152135848999023,0
0.4935384750366211,0.2152135848999023,0
0.4932231903076172,0.2151025772094727,0
0.4935350418090820,0.2151025772094727,0
0.4947114944458008,0.2181484222412109,0
0.4955457687377929,0.2181484222412109,0
0.4975027084350586,0.2181987762451172,0
0.4974082946777343,0.2181987762451172,0
0.4978631973266601,0.2191841125488281,0
0.4990705490112304,0.2191841125488281,0
0.4994836807250976,0.2207462310791015,0
0.5011682510375977,0.2207462310791015,0
0.5007562637329102,0.2204996109008789,0
0.5008317947387695,0.2204996109008789,0
0.5019533157348632,0.2233737945556641,0
0.5025152206420899,0.2233737945556641,0
0.5041620254516601,0.2230304718017578,0
0.5038461685180664,0.2230304718017578,0
0.5041162490844726,0.2237342834472656,0
0.5051198959350586,0.2237342834472656,0
0.5052972793579101,0.2249736785888672,0
0.5067707061767578,0.2249736785888672,0
0.5062248229980468,0.2244329452514648,0
0.5061904907226562,0.2244329452514648,0
0.5071929931640625,0.2272155761718750,0
0.5076444625854492,0.2272155761718750,0
0.5091499328613281,0.2267023086547851,0
0.5087768554687500,0.2267023086547851,0
0.5089027404785156,0.2272396087646484,0
0.5098463058471679,0.2272396087646484,0
0.5100053787231446,0.2284864425659180,0
0.5114410400390624,0.2284864425659180,0
0.5108877182006836,0.2278409957885742,0
0.5108470916748047,0.2278409957885742,0
0.5118730545043945,0.2307786941528320,0
0.5122730255126953,0.2307786941528320,0
0.5138654708862305,0.2302299499511719,0
0.5134603500366210,0.2302299499511719,0
0.5138339996337891,0.2309062957763672,0
0.5147472381591797,0.2309062957763672,0
0.5149332046508789,0.2321805953979492,0
0.5163579940795898,0.2321805953979492,0
0.5158132553100586,0.2316169738769531,0
0.5158676147460938,0.2316169738769531,0
0.5170623779296875,0.2346427917480469,0
0.5175058364868164,0.2346427917480469,0
0.5190135955810546,0.2341135025024414,0
0.5187297821044922,0.2341135025024414,0
0.5189689636230469,0.2347606658935547,0
0.5198518753051757,0.2347606658935547,0
0.5199113845825195,0.2358043670654297,0
0.5212194442749023,0.2358043670654297,0
0.5205608367919922,0.2349288940429687,0
0.5202598571777344,0.2349288940429687,0
0.5210197448730468,0.2374036788940430,0
0.5208606719970703,0.2374036788940430,0
0.5216377258300781,0.2358215332031250,0
0.5203216552734374,0.2358215332031250,0
0.5194524765014649,0.2346090316772461,0
0.5185054779052735,0.2346090316772461,0
0.5163722991943359,0.2324249267578125,0
0.5145143508911133,0.2324249267578125,0
0.5105873107910156,0.2266920089721680,0
0.5061750411987305,0.2266920089721680,0
0.5031183242797851,0.2231809616088867,0
0.4987089157104492,0.2231809616088867,0
0.4959314346313476,0.2159694671630859,0
0.4909893035888672,0.2159694671630859,0
0.4875532150268554,0.2106159210205078,0
0.4845354080200195,0.2106159210205078,0
0.4816589355468750,0.2069801330566406,0
0.4798816680908203,0.2069801330566406,0
0.4771196365356445,0.2027400970458984,0
0.4748136520385742,0.2027400970458984,0
0.4740617752075195,0.2027177810668945,0
0.4726015090942383,0.2027177810668945,0
0.4724390029907226,0.1999643325805664,0
0.4707229614257812,0.1999643325805664,0
0.4700397491455078,0.1987724304199219,0
0.4697839736938476,0.1987724304199219,0
0.4689096450805664,0.1984720230102539,0
0.4691493988037109,0.1984720230102539,0
0.4679477691650391,0.1966152191162109,0
0.4672250747680664,0.1966152191162109,0
0.4675540924072266,0.1983398437500000,0
0.4670860290527343,0.1983398437500000,0
0.4677165985107422,0.1967662811279297,0
0.4668004989624023,0.1967662811279297,0
0.4666608810424804,0.1964876174926758,0
0.4669195175170898,0.1964876174926758,0
0.4665309906005859,0.1967639923095703,0
0.4670837402343750,0.1967639923095703,0
0.4661882400512695,0.1954072952270508,0
0.4662483215332031,0.1954072952270508,0
0.4662700653076172,0.1974449157714844,0
0.4660514831542968,0.1974449157714844,0
0.4667043685913086,0.1961105346679687,0
0.4660434722900391,0.1961105346679687,0
0.4661716461181640,0.1961700439453125,0
0.4666631698608398,0.1961700439453125,0
0.4664737701416015,0.1968149185180664,0
0.4675014495849609,0.1968149185180664,0
0.4669395446777344,0.1960807800292969,0
0.4670665740966797,0.1960807800292969,0
0.4682739257812500,0.1990859985351562,0
0.4688518524169922,0.1990859985351562,0
0.4702074050903320,0.1988594055175781,0
0.4703510284423828,0.1988594055175781,0
0.4712539672851562,0.2000925064086914,0
0.4725934982299804,0.2000925064086914,0
0.4729465484619140,0.2017244338989258,0
0.4745372772216797,0.2017244338989258,0
0.4745132446289062,0.2015836715698242,0
0.4748519897460937,0.2015836715698242,0
0.4760868072509765,0.2046964645385742,0
0.4764467239379883,0.2046964645385742,0
0.4775173187255859,0.2039503097534180,0
0.4772323608398437,0.2039503097534180,0
0.4775785446166992,0.2044235229492188,0
0.4782445907592773,0.2044235229492188,0
0.4780059814453125,0.2050203323364258,0
0.4787000656127929,0.2050203323364258,0
0.4780014038085937,0.2038633346557617,0
0.4777685165405273,0.2038633346557617,0
0.4784814834594726,0.2061166763305664,0
0.4782949447631836,0.2061166763305664,0
0.4789157867431640,0.2048303604125976,0
0.4783802032470703,0.2048303604125976,0
0.4786600112915039,0.2050277709960937,0
0.4792116165161133,0.2050277709960937,0
0.4789358139038086,0.2056383132934570,0
0.4797935485839844,0.2056383132934570,0
0.4792156219482422,0.2047142028808594,0
0.4790742874145508,0.2047142028808594,0
0.4799480438232422,0.2073686599731445,0
0.4801271438598633,0.2073686599731445,0
0.4809762954711914,0.2064702987670898,0
0.4807073593139648,0.2064702987670898,0
0.4812841415405273,0.2069847106933594,0
0.4822242736816406,0.2069847106933594,0
0.4821390151977539,0.2081062316894531,0
0.4832416534423828,0.2081062316894531,0
0.4828840255737304,0.2075254440307617,0
0.4829858779907226,0.2075254440307617,0
0.4841119766235351,0.2104814529418945,0
0.4844747543334961,0.2104814529418945,0
0.4853010177612305,0.2097948074340820,0
0.4851711273193359,0.2097948074340820,0
0.4859384536743164,0.2105272293090820,0
0.4869237899780273,0.2105272293090820,0
0.4869935989379883,0.2117734909057617,0
0.4882049560546875,0.2117734909057617,0
0.4880081176757812,0.2113952636718750,0
0.4883096694946289,0.2113952636718750,0
0.4896039962768555,0.2146184921264648,0
0.4900388717651367,0.2146184921264648,0
0.4909732818603516,0.2139770507812500,0
0.4910219192504883,0.2139770507812500,0
0.4919157028198242,0.2149789810180664,0
0.4930521011352539,0.2149789810180664,0
0.4930995941162109,0.2163282394409180,0
0.4944396972656250,0.2163282394409180,0
0.4943361282348633,0.2160552978515625,0
0.4947063446044921,0.2160552978515625,0
0.4960641860961914,0.2194604873657227,0
0.4965682983398437,0.2194604873657227,0
0.4976079940795898,0.2189008712768555,0
0.4977470397949219,0.2197746276855469,0
0.4982654571533203,0.2185392379760742,0
0.4992233276367187,0.2219306945800781,0
0.5003608703613281,0.2210042953491211,0
0.5007099151611328,0.2210042953491211,0
0.5013124465942382,0.2218591690063476,0
0.5020826339721679,0.2218591690063476,0
0.5019012451171875,0.2230127334594726,0
0.5029787063598633,0.2230127334594726,0
0.5026473999023438,0.2221378326416016,0
0.5029821395874023,0.2221378326416016,0
0.5037540435791016,0.2252162933349609,0
0.5037466049194336,0.2252162933349609,0
0.5044635772705078,0.2240610122680664,0
0.5047531127929688,0.2240610122680664,0
0.5054214477539062,0.2248672485351562,0
0.5061492919921875,0.2248672485351562,0
0.5060085296630860,0.2260854721069336,0
0.5071460723876953,0.2260854721069336,0
0.5069623947143554,0.2254039764404297,0
0.5074419021606446,0.2254039764404297,0
0.5082487106323242,0.2286724090576172,0
0.5083871841430664,0.2286724090576172,0
0.5091871261596680,0.2276315689086914,0
0.5095779418945312,0.2276315689086914,0
0.5102703094482421,0.2285688400268555,0
0.5110868453979492,0.2285688400268555,0
0.5109815597534180,0.2298110961914062,0
0.5121746063232422,0.2298110961914062,0
0.5119216918945312,0.2290380477905273,0
0.5122833251953125,0.2290380477905273,0
0.5131450653076172,0.2323024749755859,0
0.5130615234375000,0.2323024749755859,0
0.5137229919433594,0.2310665130615234,0
0.5140829086303711,0.2310665130615234,0
0.5148159027099609,0.2319442749023437,0
0.5156341552734375,0.2319442749023437,0
0.5153892517089843,0.2331110000610351,0
0.5165004730224609,0.2331110000610351,0
0.5163202285766602,0.2324375152587891,0
0.5168020248413085,0.2324375152587891,0
0.5176843643188477,0.2357059478759765,0
0.5177003860473632,0.2357059478759765,0
0.5184053421020508,0.2345890045166016,0
0.5186948776245117,0.2345890045166016,0
0.5195755004882813,0.2354839324951172,0
0.5203514099121094,0.2354839324951172,0
0.5201585769653320,0.2366025924682617,0
0.5212446212768554,0.2366025924682617,0
0.5208566665649413,0.2357471466064453,0
0.5210786819458008,0.2357471466064453,0
0.5216016769409180,0.2383878707885742,0
0.5209390640258789,0.2383878707885742,0
0.5207405090332031,0.2359834671020508,0
0.5197935104370117,0.2359834671020508,0
0.5190256118774413,0.2344379425048828,0
0.5173204421997070,0.2344379425048828,0
0.5142894744873047,0.2313325881958008,0
0.5114536285400391,0.2313325881958008,0
0.5073560714721680,0.2245719909667969,0
0.5029867172241210,0.2245719909667969,0
0.4995460510253906,0.2209196090698242,0
0.4945495605468750,0.2209196090698242,0
0.4908897399902343,0.2131690979003906,0
0.4869100570678710,0.2131690979003906,0
0.4843946456909179,0.2085668563842773,0
0.4816406250000000,0.2085668563842773,0
0.4788167953491211,0.2054775238037109,0
0.4771745681762695,0.2054775238037109,0
0.4751089096069336,0.2016923904418945,0
0.4735576629638671,0.2016923904418945,0
0.4728704452514648,0.2022926330566406,0
0.4713008880615234,0.2022926330566406,0
0.4705518722534179,0.1992885589599609,0
0.4698045730590820,0.1992885589599609,0
0.4699024200439453,0.1987581253051758,0
0.4696901321411133,0.1987581253051758,0
0.4687128067016602,0.1987609863281250,0
0.4689725875854492,0.1987609863281250,0
0.4683013916015625,0.1972858428955078,0
0.4681674957275390,0.1972858428955078,0
0.4685068130493164,0.1994419097900391,0
0.4679117202758789,0.1994419097900391,0
0.4680124282836914,0.1975994110107422,0
0.4678974151611328,0.1975994110107422,0
0.4685382843017578,0.1978374481201172,0
0.4687637329101562,0.1978374481201172,0
0.4681480407714844,0.1983020782470703,0
0.4686910629272460,0.1983020782470703,0
0.4682870864868164,0.1972400665283203,0
0.4684204101562500,0.1972400665283203,0
0.4688129425048828,0.1996536254882812,0
0.4684919357299804,0.1996536254882812,0
0.4686429977416992,0.1981081008911133,0
0.4688020706176758,0.1981081008911133,0
0.4697078704833984,0.1987701416015625,0
0.4703086853027343,0.1987701416015625,0
0.4701587677001953,0.1997869491577148,0
0.4712568283081054,0.1997869491577148,0
0.4713403701782226,0.1996965408325195,0
0.4722684860229492,0.1996965408325195,0
0.4734935760498047,0.2032424926757812,0
0.4739479064941406,0.2032424926757812,0
0.4747655868530273,0.2028430938720703,0
0.4757709503173828,0.2028430938720703,0
0.4774612426757812,0.2046203613281250,0
0.4786468505859375,0.2046203613281250,0
0.4788974761962890,0.2063816070556641,0
0.4803468704223632,0.2063816070556641,0
0.4805957794189453,0.2065092086791992,0
0.4814517974853516,0.2065092086791992,0
0.4824588775634766,0.2096929550170898,0
0.4824394226074218,0.2096929550170898,0
0.4828016281127929,0.2085170745849609,0
0.4831729888916015,0.2085170745849609,0
0.4842195510864258,0.2092397689819336,0
0.4846120834350586,0.2092397689819336,0
0.4840993881225586,0.2098159790039062,0
0.4847459793090820,0.2098159790039062,0
0.4842527389526367,0.2089353561401367,0
0.4844861984252929,0.2089353561401367,0
0.4848546981811523,0.2112974166870117,0
0.4843643188476562,0.2112974166870117,0
0.4842487335205078,0.2095155715942383,0
0.4843648910522461,0.2095155715942383,0
0.4853565216064453,0.2099802017211914,0
0.4857078552246094,0.2099802017211914,0
0.4851751327514648,0.2107097625732422,0
0.4858520507812500,0.2107097625732422,0
0.4856981277465820,0.2100757598876953,0
0.4861289978027343,0.2100757598876953,0
0.4867418289184570,0.2127691268920898,0
0.4865713119506836,0.2127691268920898,0
0.4867223739624023,0.2115125656127930,0
0.4871566772460937,0.2115125656127930,0
0.4884412765502930,0.2124727249145508,0
0.4888298034667968,0.2124727249145508,0
0.4888938903808593,0.2135570526123047,0
0.4899129867553711,0.2135570526123047,0
0.4898923873901367,0.2134151458740234,0
0.4906803131103515,0.2134151458740234,0
0.4915706634521484,0.2164999008178711,0
0.4916616439819336,0.2164999008178711,0
0.4919694900512695,0.2155912399291992,0
0.4926023483276367,0.2155912399291992,0
0.4941936492919922,0.2167945861816406,0
0.4947441101074219,0.2185083389282227,0
0.4953758239746093,0.2181032180786133,0
0.4961826324462890,0.2181032180786133,0
0.4981847763061523,0.2210346221923828,0
0.4982568740844726,0.2215044021606445,0
0.4987066268920898,0.2206575393676758,0
0.5021163940429687,0.2220525741577148,0
0.5018228530883789,0.2240781784057617,0
0.5024963378906250,0.2235420227050781,0
0.5034135818481446,0.2245347976684570,0
0.5053985595703124,0.2264516830444336,0
0.5054340362548828,0.2268865585327148,0
0.5057493209838867,0.2259389877319336,0
0.5081113815307617,0.2271354675292969,0
0.5084300994873047,0.2290660858154297,0
0.5088466644287110,0.2282764434814453,0
0.5096408843994140,0.2290838241577148,0
0.5112739562988281,0.2308370590209961,0
0.5112316131591796,0.2312747955322265,0
0.5118667602539062,0.2301727294921875,0
0.5122129440307617,0.2301927566528320,0
0.5136978149414062,0.2329816818237305,0
0.5135948181152343,0.2321147918701172,0
0.5144920349121094,0.2327510833740234,0
0.5151947021484374,0.2327138900756836,0
0.5158464431762695,0.2347051620483398,0
0.5160558700561523,0.2334211349487305,0
0.5164260864257812,0.2333667755126953,0
0.5177684783935547,0.2358112335205078,0
0.5176643371582031,0.2350988388061523,0
0.5176643371582031,0.2349729537963867,0
0.5195240020751953,0.2356779098510742,0
0.5197814941406250,0.2375970840454101,0
0.5194879531860351,0.2364040374755859,0
0.5203559875488281,0.2372337341308594,0
0.5222179412841796,0.2373189926147461,0
0.5227111816406250,0.2381870269775390,0
0.5217504501342773,0.2381464004516601,0
0.5238847732543945,0.2386287689208984,0
0.5246000289916992,0.2408866882324219,0
0.5241537094116211,0.2397188186645508,0
0.5254611968994141,0.2398120880126953,0
0.5262353897094726,0.2406492233276367,0
0.5261346817016601,0.2415046691894531,0
0.5260969161987304,0.2410303115844726,0
0.5280910491943359,0.2417730331420898,0
0.5286638259887695,0.2420379638671875,0
0.5285619735717774,0.2426656723022461,0
0.5282947540283203,0.2423526763916015,0
0.5293613433837890,0.2421266555786133,0
0.5279199600219726,0.2424499511718750,0
0.5276103973388672,0.2424499511718750,0
0.5247310638427735,0.2402830123901367,0
0.5253582000732422,0.2392507553100586,0
0.5194822311401367,0.2353151321411133,0
0.5152267456054688,0.2317955017089844,0
0.5086200714111327,0.2253519058227539,0
0.5039308547973632,0.2262365341186523,0
0.4952545166015625,0.2201339721679687,0
0.4946914672851562,0.2169176101684570,0
0.4892400741577148,0.2122117996215820,0
0.4862749099731445,0.2122117996215820,0
0.4808887481689453,0.2070596694946289,0
0.4792665481567382,0.2073984146118164,0
0.4795475006103516,0.2056543350219726,0
0.4766773223876953,0.2044910430908203,0
0.4755317687988281,0.2044910430908203,0
0.4753755569458007,0.2032030105590820,0
0.4753114700317382,0.2043989181518555,0
0.4746128082275390,0.2031972885131836,0
0.4741653442382812,0.2028802871704102,0
0.4743501663208007,0.2022462844848633,0
0.4742843627929687,0.2038616180419922,0
0.4741012573242187,0.2027240753173828,0
0.4752096176147461,0.2024625778198242,0
0.4752096176147461,0.2026840209960938,0
0.4746213912963867,0.2028854370117187,0
0.4747243881225586,0.2032848358154297,0
0.4751638412475586,0.2026788711547851,0
0.4756433486938476,0.2045934677124023,0
0.4754825592041015,0.2037237167358398,0
0.4762561798095703,0.2040739059448242,0
0.4777833938598632,0.2040739059448242,0
0.4783435821533203,0.2065652847290039,0
0.4783435821533203,0.2059181213378906,0
0.4800041198730469,0.2068885803222656,0
0.4821641921997070,0.2074968338012695,0
0.4830774307250976,0.2100975036621094,0
0.4845291137695312,0.2096139907836914,0
0.4865455627441406,0.2107011795043945,0
0.4870159149169921,0.2115451812744140,0
0.4877059936523437,0.2127244949340820,0
0.4874542236328125,0.2128509521484375,0
0.4903392791748047,0.2133224487304687,0
0.4903947830200195,0.2138259887695312,0
0.4903902053833007,0.2143152236938476,0
0.4894083023071289,0.2142900466918945,0
0.4912691116333008,0.2142957687377930,0
0.4912885665893554,0.2157789230346680,0
0.4903724670410156,0.2144771575927734,0
0.4902803421020507,0.2148244857788086,0
0.4906854629516602,0.2142162322998047,0
0.4905841827392578,0.2156942367553711,0
0.4904119491577148,0.2146900177001953,0
0.4906499862670898,0.2146923065185547,0
0.4918779373168945,0.2147964477539062,0
0.4912485122680664,0.2154710769653320,0
0.4916862487792968,0.2151798248291016,0
0.4915546417236328,0.2153526306152344,0
0.4931619644165039,0.2153800964355469,0
0.4925411224365234,0.2164627075195313,0
0.4932786941528320,0.2164627075195313,0
0.4948413848876953,0.2180374145507812,0
0.4973230361938477,0.2207599639892578,0
0.4971725463867187,0.2205396652221680,0
0.4984897613525390,0.2205396652221680,0
0.5007980346679687,0.2214162826538086,0
0.5002693176269531,0.2230424880981445,0
0.5000513076782226,0.2226814270019531,0
0.5014560699462890,0.2236536026000976,0
0.5036241531372070,0.2237297058105469,0
0.5031944274902344,0.2246435165405273,0
0.5030622482299805,0.2249982833862305,0
0.5062379837036133,0.2259126663208008,0
0.5061424255371093,0.2259126663208008,0
0.5058328628540039,0.2267566680908203,0
0.5058328628540039,0.2271308898925781,0
0.5093353271484374,0.2280984878540039,0
0.5088363647460937,0.2294179916381836,0
0.5086572647094726,0.2292909622192383,0
0.5099344253540039,0.2292909622192383,0
0.5115943908691406,0.2300245285034180,0
0.5115943908691406,0.2315546035766601,0
0.5110759735107422,0.2311620712280273,0
0.5124761581420898,0.2314098358154297,0
0.5139398574829102,0.2333261489868164,0
0.5139066696166992,0.2331693649291992,0
0.5149177551269531,0.2338462829589844,0
0.5160598754882812,0.2334417343139648,0
0.5162801742553711,0.2351743698120117,0
0.5163768768310547,0.2344825744628906,0
0.5171579360961914,0.2350519180297851,0
0.5190845489501953,0.2350519180297851,0
0.5185478210449218,0.2365797042846680,0
0.5193111419677734,0.2361700057983398,0
0.5206575393676758,0.2369327545166016,0
0.5208995819091796,0.2386528015136719,0
0.5208995819091796,0.2382717132568359,0
0.5217470169067383,0.2385892868041992,0
0.5231735229492187,0.2402114868164062,0
0.5231082916259765,0.2400667190551758,0
0.5240175247192382,0.2407224655151367,0
0.5240175247192382,0.2403465270996094,0
0.5254056930541992,0.2419178009033203,0
0.5252168655395507,0.2419178009033203,0
0.5246372222900391,0.2415126800537109,0
0.5252002716064453,0.2415126800537109,0
0.5278375625610351,0.2420568466186523,0
0.5275033950805664,0.2420568466186523,0
0.5266765594482422,0.2422691345214844,0
0.5258302688598633,0.2422691345214844,0
0.5265724182128906,0.2421094894409180,0
0.5269002914428711,0.2421094894409180,0
0.5258777618408202,0.2417146682739258,0
0.5238401412963867,0.2417146682739258,0
0.5212566375732421,0.2383094787597656,0
0.5189060211181641,0.2383094787597656,0
0.5184379577636719,0.2340894699096679,0
0.5141035079956054,0.2340894699096679,0
0.5095476150512696,0.2283622741699219,0
0.5057859420776367,0.2283622741699219,0
0.5018125534057617,0.2226470947265625,0
0.4986419677734375,0.2226470947265625,0
0.4952127456665039,0.2181529998779297,0
0.4912370681762695,0.2181529998779297,0
0.4879823684692383,0.2132989883422851,0
0.4857072830200195,0.2132989883422851,0
0.4861307144165039,0.2104997634887695,0
0.4838006973266601,0.2104997634887695,0
0.4817865371704101,0.2083757400512695,0
0.4808904647827148,0.2083757400512695,0
0.4798576354980468,0.2072467803955078,0
0.4798896789550781,0.2072467803955078,0
0.4791309356689453,0.2069435119628906,0
0.4779670715332031,0.2069435119628906,0
0.4768632888793945,0.2057779312133789,0
0.4767665863037109,0.2057779312133789,0
0.4787916183471679,0.2055221557617188,0
0.4780488967895508,0.2055221557617188,0
0.4771602630615234,0.2053693771362305,0
0.4775041580200195,0.2053693771362305,0
0.4772798538208007,0.2055198669433594,0
0.4781736373901367,0.2055198669433594,0
0.4779922485351562,0.2061830520629883,0
0.4774143218994140,0.2061830520629883,0
0.4766767501831055,0.2056943893432617,0
0.4770824432373046,0.2056943893432617,0
0.4795143127441406,0.2060199737548828,0
0.4786485671997070,0.2060199737548828,0
0.4784448623657226,0.2062488555908203,0
0.4791355133056641,0.2062488555908203,0
0.4792339324951171,0.2070396423339844,0
0.4804985046386718,0.2070396423339844,0
0.4807714462280273,0.2083156585693359,0
0.4807622909545898,0.2083156585693359,0
0.4807096481323242,0.2089073181152344,0
0.4818414688110351,0.2089073181152344,0
0.4850406646728516,0.2104808807373047,0
0.4855356216430664,0.2104808807373047,0
0.4856798171997070,0.2119583129882812,0
0.4872241973876953,0.2119583129882812,0
0.4879949569702148,0.2138889312744141,0
0.4900251388549804,0.2138889312744141,0
0.4906562805175781,0.2158086776733398,0
0.4909057617187500,0.2158086776733398,0
0.4909292221069336,0.2165365219116211,0
0.4918836593627929,0.2165365219116211,0
0.4947864532470703,0.2174692153930664,0
0.4946125030517578,0.2174692153930664,0
0.4940328598022461,0.2179801940917969,0
0.4947521209716796,0.2179801940917969,0
0.4946840286254883,0.2185873031616211,0
0.4957883834838867,0.2185873031616211,0
0.4955091476440430,0.2191291809082031,0
0.4947658538818359,0.2191291809082031,0
0.4940311431884765,0.2186159133911133,0
0.4941135406494140,0.2186159133911133,0
0.4964315414428710,0.2185546875000000,0
0.4956052780151367,0.2185546875000000,0
0.4947126388549805,0.2183761596679688,0
0.4951429367065430,0.2183761596679688,0
0.4948774337768554,0.2187561035156250,0
0.4958587646484375,0.2187561035156250,0
0.4955509185791016,0.2191057205200195,0
0.4948711395263672,0.2191057205200195,0
0.4942829132080078,0.2189037322998047,0
0.4946342468261719,0.2189037322998047,0
0.4970998764038086,0.2191761016845703,0
0.4965951919555664,0.2191761016845703,0
0.4958965301513671,0.2194536209106445,0
0.4966140747070312,0.2194536209106445,0
0.4966054916381836,0.2202678680419922,0
0.4980165481567382,0.2202678680419922,0
0.4979547500610351,0.2211393356323242,0
0.4976348876953125,0.2211393356323242,0
0.4974111557006836,0.2214443206787109,0
0.4981143951416016,0.2214443206787109,0
0.5009902954101563,0.2222848892211914,0
0.5007740020751953,0.2222848892211914,0
0.5003854751586914,0.2230190277099609,0
0.5015373229980469,0.2230190277099609,0
0.5018388748168945,0.2243534088134766,0
0.5035314559936523,0.2243534088134766,0
0.5036790847778320,0.2255132675170898,0
0.5036024093627930,0.2255132675170898,0
0.5035263061523437,0.2262977600097656,0
0.5044870376586914,0.2262977600097656,0
0.5074876785278321,0.2273139953613281,0
0.5074178695678710,0.2273139953613281,0
0.5071146011352539,0.2282861709594727,0
0.5083156585693359,0.2282861709594727,0
0.5087448120117187,0.2297161102294922,0
0.5105770111083984,0.2297161102294922,0
0.5106845855712890,0.2309005737304687,0
0.5107618331909179,0.2309005737304687,0
0.5105209350585938,0.2316822052001953,0
0.5114364624023438,0.2316822052001953,0
0.5144262313842773,0.2325519561767578,0
0.5142013549804687,0.2325519561767578,0
0.5149480819702148,0.2333250045776367,0
0.5137207031250000,0.2335475921630859,0
0.5142448425292968,0.2341043472290039,0
9.5999994277954102,9.5999994277954102,0
