REDsignal,IRsignal,synced
0.7522687911987305,0.3345954895019531,0
0.7521120071411133,0.3352180480957031,0
0.7521932601928710,0.3350732803344726,0
0.7526870727539062,0.3350732803344726,0
0.7524524688720703,0.3346887588500976,0
0.7524736404418945,0.3346887588500976,0
0.7529005050659180,0.3360288619995117,0
0.7528890609741211,0.3360288619995117,0
0.7532020568847656,0.3354206085205078,0
0.7531522750854492,0.3354206085205078,0
0.7533697128295899,0.3356786727905273,0
0.7536529541015625,0.3356786727905273,0
0.7534412384033203,0.3361066818237304,0
0.7539310455322266,0.3361066818237304,0
0.7537530899047852,0.3357353210449219,0
0.7538372039794922,0.3357353210449219,0
0.7541536331176758,0.3370227813720703,0
0.7540946960449219,0.3370227813720703,0
0.7544546127319336,0.3365375518798828,0
0.7543424606323242,0.3365375518798828,0
0.7545787811279296,0.3367143630981445,0
0.7547893524169922,0.3367143630981445,0
0.7546543121337891,0.3370279312133789,0
0.7550285339355468,0.3370279312133789,0
0.7547498703002929,0.3363962173461914,0
0.7545845031738281,0.3363962173461914,0
0.7548007965087891,0.3374931335449219,0
0.7546560287475585,0.3374931335449219,0
0.7548168182373046,0.3366697311401367,0
0.7544631958007812,0.3366697311401367,0
0.7545667648315429,0.3365873336791992,0
0.7545547485351562,0.3365873336791992,0
0.7543647766113281,0.3367126464843750,0
0.7546216964721679,0.3367126464843750,0
0.7541891098022461,0.3359699249267578,0
0.7539899826049804,0.3359699249267578,0
0.7541444778442382,0.3369644165039062,0
0.7538881301879883,0.3369644165039062,0
0.7541879653930664,0.3361507415771484,0
0.7538068771362304,0.3361507415771484,0
0.7540517807006836,0.3360569000244141,0
0.7541690826416015,0.3360569000244141,0
0.7539190292358399,0.3362462997436523,0
0.7541982650756835,0.3362462997436523,0
0.7538417816162110,0.3357147216796875,0
0.7538852691650391,0.3357147216796875,0
0.7541009902954101,0.3369060516357422,0
0.7540197372436523,0.3369060516357422,0
0.7543573379516602,0.3362714767456055,0
0.7541536331176758,0.3362714767456055,0
0.7543819427490234,0.3363985061645507,0
0.7545747756958008,0.3363985061645507,0
0.7545501708984375,0.3368133544921875,0
0.7547779083251953,0.3368133544921875,0
0.7546171188354492,0.3363092422485351,0
0.7546600341796875,0.3363092422485351,0
0.7549999237060546,0.3376264572143555,0
0.7549816131591797,0.3376264572143555,0
0.7554656982421875,0.3370491027832031,0
0.7553426742553710,0.3370491027832031,0
0.7555589675903320,0.3373071670532227,0
0.7557729721069336,0.3373071670532227,0
0.7557140350341797,0.3377071380615234,0
0.7562078475952149,0.3377071380615234,0
0.7559446334838867,0.3373128890991211,0
0.7559743881225586,0.3373128890991211,0
0.7563039779663085,0.3386341094970703,0
0.7563262939453125,0.3386341094970703,0
0.7567136764526367,0.3380281448364258,0
0.7565225601196289,0.3380281448364258,0
0.7567502975463867,0.3382862091064453,0
0.7570421218872070,0.3382862091064453,0
0.7568944931030274,0.3385717391967774,0
0.7573997497558593,0.3385717391967774,0
0.7571462631225586,0.3382324218750000,0
0.7571245193481445,0.3382324218750000,0
0.7574048995971679,0.3394512176513672,0
0.7574192047119140,0.3394512176513672,0
0.7579193115234375,0.3389471054077148,0
0.7576784133911133,0.3389471054077148,0
0.7578392028808594,0.3391187667846680,0
0.7580572128295898,0.3391187667846680,0
0.7579685211181640,0.3394924163818359,0
0.7584657669067383,0.3394924163818359,0
0.7581699371337890,0.3390541076660156,0
0.7581687927246094,0.3390541076660156,0
0.7584732055664062,0.3403072357177734,0
0.7584211349487304,0.3403072357177734,0
0.7589252471923827,0.3397344589233398,0
0.7587095260620117,0.3397344589233398,0
0.7588588714599609,0.3398088455200195,0
0.7590774536132813,0.3398088455200195,0
0.7588811874389648,0.3401710510253906,0
0.7593595504760742,0.3401710510253906,0
0.7591341018676757,0.3397024154663086,0
0.7591089248657227,0.3397024154663086,0
0.7593893051147461,0.3409200668334961,0
0.7592885971069335,0.3409200668334961,0
0.7597400665283203,0.3403541564941406,0
0.7595541000366210,0.3403541564941406,0
0.7597206115722656,0.3404869079589843,0
0.7599552154541015,0.3404869079589843,0
0.7598127365112305,0.3408754348754883,0
0.7603065490722656,0.3408754348754883,0
0.7599655151367187,0.3403558731079102,0
0.7598939895629883,0.3403558731079102,0
0.7601943969726562,0.3415637969970703,0
0.7601428985595703,0.3415637969970703,0
0.7606206893920898,0.3410882949829102,0
0.7604490280151367,0.3410882949829102,0
0.7605749130249023,0.3412239074707031,0
0.7607511520385742,0.3412239074707031,0
0.7607116699218750,0.3415843963623047,0
0.7611436843872070,0.3415843963623047,0
0.7608358383178710,0.3410728454589844,0
0.7607872009277343,0.3410728454589844,0
0.7608707427978515,0.3420684814453125,0
0.7605812072753906,0.3420684814453125,0
0.7608060836791992,0.3410093307495117,0
0.7600627899169922,0.3410093307495117,0
0.7595100402832031,0.3401847839355469,0
0.7587718963623047,0.3401847839355469,0
0.7577974319458007,0.3389430999755859,0
0.7569597244262695,0.3389430999755859,0
0.7554450988769531,0.3364316940307617,0
0.7538005828857421,0.3364316940307617,0
0.7528650283813476,0.3353679656982422,0
0.7515100479125977,0.3353679656982422,0
0.7509269714355469,0.3331117630004883,0
0.7496572494506836,0.3331117630004883,0
0.7489397048950195,0.3318403244018555,0
0.7484756469726562,0.3318403244018555,0
0.7478044509887695,0.3312755584716797,0
0.7478296279907226,0.3312755584716797,0
0.7472688674926757,0.3303159713745117,0
0.7469993591308594,0.3303159713745117,0
0.7471023559570312,0.3312732696533203,0
0.7470279693603515,0.3312732696533203,0
0.7476161956787110,0.3306953430175781,0
0.7474353790283202,0.3306953430175781,0
0.7475629806518554,0.3309328079223633,0
0.7479286193847656,0.3309328079223633,0
0.7478261947631836,0.3314964294433594,0
0.7485357284545898,0.3314964294433594,0
0.7483737945556640,0.3313144683837890,0
0.7484687805175781,0.3313144683837890,0
0.7487943649291992,0.3326551437377930,0
0.7489809036254883,0.3326551437377930,0
0.7495960235595703,0.3323793411254883,0
0.7495164871215820,0.3323793411254883,0
0.7497276306152344,0.3326614379882812,0
0.7499868392944335,0.3326614379882812,0
0.7500177383422851,0.3332050323486328,0
0.7506517410278321,0.3332050323486328,0
0.7503759384155273,0.3328485488891602,0
0.7503816604614257,0.3328485488891602,0
0.7507415771484375,0.3341382980346679,0
0.7507427215576171,0.3341382980346679,0
0.7514196395874023,0.3338230133056641,0
0.7512954711914063,0.3338230133056641,0
0.7514127731323242,0.3340616226196289,0
0.7517578125000000,0.3340616226196289,0
0.7516754150390624,0.3344850540161133,0
0.7522979736328125,0.3344850540161133,0
0.7519626617431641,0.3341794967651367,0
0.7520524978637695,0.3341794967651367,0
0.7522985458374023,0.3353324890136719,0
0.7523408889770508,0.3353324890136719,0
0.7528736114501953,0.3348077774047851,0
0.7526670455932617,0.3348077774047851,0
0.7526229858398438,0.3348913192749023,0
0.7527488708496094,0.3348913192749023,0
0.7525577545166016,0.3350870132446289,0
0.7529170989990234,0.3350870132446289,0
0.7524158477783203,0.3343912124633789,0
0.7521434783935547,0.3343912124633789,0
0.7523071289062500,0.3352540969848632,0
0.7521028518676758,0.3352540969848632,0
0.7525995254516601,0.3345445632934570,0
0.7522195816040039,0.3345445632934570,0
0.7521217346191406,0.3344884872436523,0
0.7522069931030273,0.3344884872436523,0
0.7518796920776367,0.3346464157104492,0
0.7523128509521484,0.3346464157104492,0
0.7518224716186523,0.3339506149291992,0
0.7516422271728516,0.3339506149291992,0
0.7517314910888672,0.3348375320434570,0
0.7516256332397461,0.3348375320434570,0
0.7521131515502929,0.3342739105224609,0
0.7518997192382812,0.3342739105224609,0
0.7517910003662109,0.3343460083007813,0
0.7519329071044921,0.3343460083007813,0
0.7518493652343750,0.3346361160278320,0
0.7523986816406250,0.3346361160278320,0
0.7520153045654296,0.3341320037841797,0
0.7518585205078124,0.3341320037841797,0
0.7520999908447266,0.3352294921875000,0
0.7521160125732421,0.3352294921875000,0
0.7527311325073242,0.3347740173339844,0
0.7525228500366211,0.3347740173339844,0
0.7526029586791992,0.3349267959594727,0
0.7527900695800781,0.3349267959594727,0
0.7527471542358398,0.3353199005126953,0
0.7532838821411133,0.3353199005126953,0
0.7530447006225586,0.3348930358886719,0
0.7530435562133789,0.3348930358886719,0
0.7532152175903321,0.3361387252807617,0
0.7532632827758788,0.3361387252807617,0
0.7539682388305664,0.3357175827026367,0
0.7537622451782227,0.3357175827026367,0
0.7538194656372070,0.3358800888061523,0
0.7540426254272461,0.3358800888061523,0
0.7540157318115234,0.3363384246826172,0
0.7546062469482422,0.3363384246826172,0
0.7543184280395507,0.3359767913818359,0
0.7543355941772460,0.3359767913818359,0
0.7545158386230468,0.3371149063110351,0
0.7545490264892578,0.3371149063110351,0
0.7552997589111328,0.3367452621459961,0
0.7551000595092773,0.3367452621459961,0
0.7550136566162109,0.3369026184082031,0
0.7553089141845702,0.3369026184082031,0
0.7553220748901367,0.3373237609863281,0
0.7558450698852539,0.3373237609863281,0
0.7555286407470703,0.3369363784790039,0
0.7554840087890625,0.3369363784790039,0
0.7556751251220702,0.3380578994750976,0
0.7557500839233399,0.3380578994750976,0
0.7564847946166992,0.3376144409179687,0
0.7561231613159179,0.3373186111450195,0
0.7562725067138671,0.3384613037109375,0
0.7564361572265624,0.3384613037109375,0
0.7569047927856445,0.3380390167236328,0
0.7566810607910156,0.3380390167236328,0
0.7566999435424805,0.3381923675537109,0
0.7569637298583984,0.3381923675537109,0
0.7574684143066406,0.3385545730590820,0
0.7574678421020508,0.3385545730590820,0
0.7571411132812500,0.3380807876586914,0
0.7570055007934570,0.3380807876586914,0
0.7571062088012696,0.3391811370849609,0
0.7571445465087890,0.3391811370849609,0
0.7578575134277343,0.3387594223022461,0
0.7575925827026367,0.3387594223022461,0
0.7576160430908203,0.3389007568359375,0
0.7578340530395508,0.3389007568359375,0
0.7577636718749999,0.3392143249511719,0
0.7583147048950195,0.3392143249511719,0
0.7578769683837890,0.3387594223022461,0
0.7577808380126952,0.3387594223022461,0
0.7578826904296875,0.3399021148681641,0
0.7579690933227539,0.3399021148681641,0
0.7586082458496094,0.3394340515136718,0
0.7583427429199219,0.3394340515136718,0
0.7583267211914062,0.3395250320434570,0
0.7585733413696288,0.3395250320434570,0
0.7584989547729492,0.3398694992065430,0
0.7590774536132813,0.3398694992065430,0
0.7587141036987305,0.3394334793090820,0
0.7585481643676758,0.3394334793090820,0
0.7587272644042968,0.3404874801635742,0
0.7588199615478516,0.3404874801635742,0
0.7595438003540039,0.3401252746582031,0
0.7592176437377930,0.3401252746582031,0
0.7591547012329102,0.3402288436889648,0
0.7593818664550781,0.3402288436889648,0
0.7594333648681640,0.3406013488769531,0
0.7600330352783203,0.3406013488769531,0
0.7596914291381835,0.3402076721191406,0
0.7595397949218750,0.3402076721191406,0
0.7596410751342774,0.3412416458129883,0
0.7597732543945312,0.3412416458129883,0
0.7604661941528320,0.3408857345581054,0
0.7601675033569336,0.3408857345581054,0
0.7599975585937500,0.3408948898315430,0
0.7601377487182617,0.3408948898315430,0
0.7597629547119140,0.3409000396728515,0
0.7599294662475585,0.3409000396728515,0
0.7589561462402343,0.3394958496093750,0
0.7579421997070312,0.3394958496093750,0
0.7571559906005859,0.3390111923217773,0
0.7558908462524414,0.3390111923217773,0
0.7553936004638672,0.3365467071533203,0
0.7534349441528320,0.3365467071533203,0
0.7520009994506835,0.3342573165893555,0
0.7506666183471680,0.3342573165893555,0
0.7494861602783203,0.3325595855712891,0
0.7487686157226562,0.3325595855712891,0
0.7473976135253906,0.3304372787475586,0
0.7463516235351563,0.3304372787475586,0
0.7458503723144531,0.3302747726440430,0
0.7454011917114257,0.3302747726440430,0
0.7458251953125000,0.3293140411376953,0
0.7453880310058594,0.3293140411376953,0
0.7451522827148437,0.3292419433593750,0
0.7453983306884765,0.3292419433593750,0
0.7453102111816406,0.3296236038208007,0
0.7460563659667968,0.3296236038208007,0
0.7456684112548828,0.3293621063232422,0
0.7457794189453125,0.3293621063232422,0
0.7459362030029296,0.3305694580078125,0
0.7462383270263672,0.3305694580078125,0
0.7472173690795898,0.3305356979370117,0
0.7471824645996094,0.3305356979370117,0
0.7471721649169921,0.3309236526489258,0
0.7476671218872070,0.3309236526489258,0
0.7477483749389648,0.3315965652465820,0
0.7486192703247070,0.3315965652465820,0
0.7482793807983398,0.3313756942749023,0
0.7482759475708007,0.3313756942749023,0
0.7484533309936523,0.3325309753417969,0
0.7486547470092774,0.3325309753417969,0
0.7496498107910156,0.3323724746704101,0
0.7493865966796874,0.3323724746704101,0
0.7493225097656250,0.3326116561889648,0
0.7497425079345703,0.3326116561889648,0
0.7496681213378906,0.3330608367919922,0
0.7505229949951172,0.3330608367919922,0
0.7501121520996094,0.3328691482543945,0
0.7501390457153320,0.3328691482543945,0
0.7501865386962890,0.3339729309082031,0
0.7503633499145508,0.3339729309082031,0
0.7513223648071289,0.3337417602539062,0
0.7511489868164062,0.3337417602539062,0
0.7509252548217773,0.3339134216308594,0
0.7512302398681641,0.3339134216308594,0
0.7511524200439453,0.3342687606811524,0
0.7518201828002929,0.3342687606811524,0
0.7512971878051757,0.3337640762329102,0
0.7510087966918945,0.3337640762329102,0
0.7509944915771484,0.3345525741577148,0
0.7509126663208008,0.3345525741577148,0
0.7517412185668945,0.3340101242065430,0
0.7512262344360351,0.3340101242065430,0
0.7509761810302734,0.3338956832885742,0
0.7509813308715820,0.3338956832885742,0
0.7508216857910156,0.3340032577514648,0
0.7512502670288086,0.3340032577514648,0
0.7506917953491211,0.3333286285400390,0
0.7503679275512695,0.3333286285400390,0
0.7502866744995117,0.3340353012084961,0
0.7502420425415038,0.3340353012084961,0
0.7509647369384765,0.3335283279418945,0
0.7505332946777343,0.3335283279418945,0
0.7502906799316406,0.3334247589111328,0
0.7504434585571289,0.3334247589111328,0
0.7503410339355469,0.3336616516113281,0
0.7509572982788085,0.3336616516113281,0
0.7504371643066406,0.3332450866699219,0
0.7502168655395508,0.3332450866699219,0
0.7502357482910156,0.3340335845947265,0
0.7502437591552734,0.3340335845947265,0
0.7511695861816406,0.3337600708007812,0
0.7508399963378906,0.3337600708007812,0
0.7506734848022460,0.3338424682617188,0
0.7508995056152343,0.3338424682617188,0
0.7509412765502930,0.3341371536254883,0
0.7515735626220703,0.3341371536254883,0
0.7511615753173828,0.3338367462158203,0
0.7510156631469727,0.3338367462158203,0
0.7511249542236328,0.3348077774047851,0
0.7512353897094727,0.3348077774047851,0
0.7521949768066406,0.3345422744750977,0
0.7518636703491210,0.3345422744750977,0
0.7517589569091797,0.3346744537353515,0
0.7520490646362304,0.3346744537353515,0
0.7520187377929687,0.3351213455200195,0
0.7527660369873047,0.3351213455200195,0
0.7523454666137696,0.3348461151123047,0
0.7522287368774414,0.3348461151123047,0
0.7523511886596680,0.3357318878173828,0
0.7526556015014648,0.3356260299682617,0
0.7530149459838867,0.3353370666503906,0
0.7530527114868164,0.3352827072143554,0
0.7532855987548828,0.3362680435180664,0
0.7540082931518555,0.3360946655273437,0
0.7535911560058594,0.3358680725097656,0
0.7535264968872070,0.3367137908935547,0
0.7539155960083007,0.3366107940673828,0
0.7542314529418945,0.3367584228515625,0
0.7542469024658203,0.3366811752319336,0
0.7542469024658203,0.3372007369995117,0
0.7549215316772461,0.3369764328002929,0
0.7548007965087891,0.3368036270141602,0
0.7546783447265625,0.3376195907592773,0
0.7551389694213867,0.3376607894897461,0
0.7554061889648437,0.3373369216918945,0
0.7554016113281250,0.3373369216918945,0
0.7555257797241210,0.3381008148193359,0
0.7561952590942382,0.3379451751708984,0
0.7556207656860351,0.3376167297363281,0
0.7557832717895507,0.3379222869873047,0
0.7560235977172851,0.3383022308349609,0
0.7563446044921874,0.3384859085083008,0
0.7561237335205078,0.3380950927734375,0
0.7565866470336914,0.3387594223022461,0
0.7565866470336914,0.3386976242065430,0
0.7568058013916016,0.3384298324584961,0
0.7566684722900391,0.3388429641723633,0
0.7566976547241211,0.3391416549682617,0
0.7572784423828125,0.3389677047729492,0
0.7570398330688476,0.3388263702392578,0
0.7571846008300781,0.3395147323608398,0
0.7582191467285156,0.3392921447753906,0
0.7577167510986328,0.3392921447753906,0
0.7578449249267578,0.3394048690795898,0
0.7578689575195312,0.3398025512695312,0
0.7586053848266602,0.3397224426269531,0
0.7580932617187500,0.3398157119750976,0
0.7580566406250000,0.3399633407592773,0
0.7586179733276367,0.3401676177978515,0
0.7585224151611328,0.3405607223510742,0
0.7595764160156250,0.3404062271118164,0
0.7590951919555664,0.3402557373046875,0
0.7593063354492188,0.3406236648559570,0
0.7597795486450195,0.3409040451049805,0
0.7599964141845703,0.3408714294433594,0
0.7595535278320312,0.3408113479614258,0
0.7594396591186523,0.3407627105712890,0
0.7598934173583984,0.3403072357177734,0
0.7590391159057617,0.3404565811157226,0
0.7574008941650391,0.3395988464355469,0
0.7574008941650391,0.3393144607543945,0
0.7560922622680664,0.3373231887817383,0
0.7527042388916015,0.3347139358520508,0
0.7512559890747070,0.3351041793823242,0
0.7499834060668945,0.3331592559814453,0
0.7493436813354492,0.3319284439086914,0
0.7465827941894531,0.3304927825927734,0
0.7458629608154297,0.3304927825927734,0
0.7453062057495117,0.3296133041381836,0
0.7454790115356446,0.3292098999023437,0
0.7445148468017578,0.3290199279785156,0
0.7443180084228516,0.3290966033935547,0
0.7452747344970703,0.3294067382812500,0
0.7452558517456055,0.3293415069580078,0
0.7455013275146484,0.3296876907348633,0
0.7451917648315429,0.3301557540893554,0
0.7464992523193359,0.3302581787109375,0
0.7462400436401367,0.3306449890136718,0
0.7465015411376953,0.3309974670410156,0
0.7468133926391601,0.3312131881713867,0
0.7477832794189453,0.3313407897949219,0
0.7477106094360352,0.3314329147338867,0
0.7477684020996094,0.3321046829223633,0
0.7482044219970703,0.3322763442993164,0
0.7484985351562500,0.3324199676513672,0
0.7484470367431640,0.3321550369262695,0
0.7486764907836914,0.3329378128051758,0
0.7489597320556640,0.3329732894897461,0
0.7495576858520507,0.3331020355224609,0
0.7495634078979492,0.3331020355224609,0
0.7500308990478516,0.3337223052978516,0
0.7500308990478516,0.3338184356689453,0
0.7504240036010742,0.3337560653686523,0
0.7503026962280274,0.3337783813476562,0
0.7505567550659179,0.3343162536621094,0
0.7509939193725585,0.3343162536621094,0
0.7503993988037109,0.3340833663940430,0
0.7505052566528320,0.3341268539428711,0
0.7504817962646484,0.3341766357421875,0
0.7509223937988281,0.3339517593383789,0
0.7501184463500976,0.3336868286132812,0
0.7501029968261719,0.3338865280151367,0
0.7503215789794921,0.3339603424072266,0
0.7504732131958007,0.3337240219116211,0
0.7497762680053711,0.3336639404296875,0
0.7496366500854492,0.3336639404296875,0
0.7502929687500000,0.3336805343627929,0
0.7502929687500000,0.3335231781005859,0
0.7496904373168946,0.3333961486816406,0
0.7493585586547852,0.3333738327026367,0
0.7500869750976562,0.3332691192626953,0
0.7496738433837891,0.3333040237426758,0
0.7493190765380859,0.3331890106201172,0
0.7493190765380859,0.3333366394042969,0
0.7501419067382812,0.3331901550292969,0
0.7498329162597656,0.3333515167236328,0
0.7497035980224609,0.3332759857177734,0
0.7497316360473633,0.3334287643432617,0
0.7505716323852539,0.3333189010620117,0
0.7504051208496093,0.3333629608154297,0
0.7502403259277344,0.3337263107299804,0
0.7505413055419922,0.3338682174682617,0
0.7504474639892578,0.3333967208862305,0
0.7510614395141602,0.3335231781005859,0
0.7502861022949219,0.3337400436401367,0
0.7509206771850586,0.3337623596191406,0
0.7509206771850586,0.3338985443115234,0
0.7518430709838867,0.3343374252319336,0
0.7518470764160156,0.3343299865722656,0
0.7514671325683594,0.3347030639648437,0
0.7514654159545898,0.3347030639648437,0
0.7529817581176758,0.3353874206542969,0
0.7529817581176758,0.3354721069335938,0
0.7534023284912109,0.3360174179077148,0
0.7528347015380860,0.3364276885986328,0
0.7542903900146484,0.3367818832397461,0
0.7543447494506835,0.3367818832397461,0
0.7538532257080078,0.3375692367553711,0
0.7543184280395507,0.3375509262084961,0
0.7553363800048828,0.3376750946044922,0
0.7548133850097656,0.3376985549926758,0
0.7546165466308593,0.3382495880126953,0
0.7551841735839844,0.3382495880126953,0
0.7556671142578125,0.3391078948974609,0
0.7557540893554687,0.3384372711181641,0
0.7557523727416992,0.3389196395874023,0
0.7558422088623047,0.3390495300292969,0
0.7562868118286132,0.3391885757446289,0
0.7562593460083008,0.3396726608276367,0
0.7570913314819335,0.3409154891967773,0
0.7583433151245117,0.3406373977661133,0
0.7582099914550781,0.3412817001342773,0
0.7587421417236327,0.3422344207763672,0
0.7591083526611327,0.3425680160522461,0
0.7601194381713867,0.3434852600097656,0
0.7600982666015624,0.3435956954956055,0
0.7603580474853515,0.3438983917236328,0
0.7617284774780273,0.3441627502441406,0
0.7615425109863281,0.3446697235107422,0
0.7615425109863281,0.3446502685546875,0
0.7614503860473633,0.3446502685546875,0
0.7621965408325195,0.3455245971679687,0
0.7633329391479492,0.3455245971679687,0
0.7631092071533203,0.3458335876464844,0
0.7630989074707031,0.3458335876464844,0
0.7629529953002929,0.3466043472290039,0
0.7632825851440429,0.3466043472290039,0
0.7649036407470703,0.3468944549560547,0
0.7647285461425781,0.3468944549560547,0
0.7643480300903320,0.3473773956298828,0
0.7648344039916992,0.3473773956298828,0
0.7649751663208008,0.3480915069580078,0
0.7658168792724609,0.3480915069580078,0
0.7655313491821288,0.3483106613159180,0
0.7654981613159180,0.3483106613159180,0
0.7653848648071289,0.3491621017456055,0
0.7657030105590820,0.3491621017456055,0
0.7674682617187499,0.3495128631591797,0
0.7671615600585937,0.3495128631591797,0
0.7669034957885742,0.3499992370605469,0
0.7672056198120117,0.3499992370605469,0
0.7673063278198242,0.3506435394287109,0
0.7680353164672852,0.3506435394287109,0
0.7676685333251952,0.3508363723754883,0
0.7674516677856446,0.3508363723754883,0
0.7672084808349610,0.3511865615844726,0
0.7670299530029296,0.3511865615844726,0
0.7680862426757812,0.3507888793945312,0
0.7670310974121094,0.3507888793945312,0
0.7658065795898438,0.3495815277099609,0
0.7648956298828125,0.3495815277099609,0
0.7635543823242187,0.3477756500244141,0
0.7625844955444335,0.3477756500244141,0
0.7606464385986328,0.3449913024902344,0
0.7582139968872070,0.3449913024902344,0
0.7557947158813476,0.3415821075439453,0
0.7534275054931641,0.3415821075439453,0
0.7526950836181641,0.3379091262817382,0
0.7503610610961914,0.3379091262817382,0
0.7482639312744140,0.3350818634033203,0
0.7470514297485351,0.3350818634033203,0
0.7458635330200195,0.3332902908325195,0
0.7455413818359374,0.3332902908325195,0
0.7447225570678710,0.3323930740356445,0
0.7443689346313477,0.3323930740356445,0
0.7439992904663085,0.3326299667358398,0
0.7444461822509766,0.3326299667358398,0
0.7461679458618163,0.3333183288574219,0
0.7465902328491211,0.3333183288574219,0
0.7467401504516601,0.3345634460449219,0
0.7480504989624023,0.3345634460449219,0
0.7487686157226562,0.3363933563232422,0
0.7506168365478515,0.3363933563232422,0
0.7512308120727539,0.3380373001098633,0
0.7520919799804687,0.3380373001098633,0
0.7526269912719726,0.3397871017456054,0
0.7536729812622071,0.3397871017456054,0
0.7557540893554687,0.3410711288452148,0
0.7562273025512695,0.3410711288452148,0
0.7560613632202148,0.3420301437377929,0
0.7571096420288086,0.3420301437377929,0
0.7570941925048827,0.3429891586303711,0
0.7584028244018555,0.3429891586303711,0
0.7580812454223632,0.3435476303100586,0
0.7583015441894531,0.3435476303100586,0
0.7579101562500000,0.3441513061523437,0
0.7584365844726563,0.3441513061523437,0
0.7602127075195312,0.3444889068603516,0
0.7602058410644531,0.3444889068603516,0
0.7597864151000976,0.3451858520507812,0
0.7606567382812500,0.3451858520507812,0
0.7605783462524414,0.3458009719848633,0
0.7616632461547851,0.3458009719848633,0
0.7612031936645508,0.3461854934692383,0
0.7612180709838867,0.3461854934692383,0
0.7607059478759766,0.3465139389038086,0
0.7609159469604492,0.3465139389038086,0
0.7625856399536133,0.3465694427490234,0
0.7623029708862304,0.3465694427490234,0
0.7614418029785156,0.3466032028198242,0
0.7618801116943359,0.3466032028198242,0
0.7614692687988281,0.3468297958374023,0
0.7623653411865234,0.3468297958374023,0
0.7617050170898437,0.3466787338256836,0
0.7613027572631835,0.3466787338256836,0
0.7606584548950195,0.3466255187988281,0
0.7606166839599610,0.3466255187988281,0
0.7623052597045898,0.3463703155517578,0
0.7617742538452148,0.3463703155517578,0
0.7609308242797851,0.3463714599609375,0
0.7612203598022461,0.3463714599609375,0
0.7609416961669921,0.3464944839477539,0
0.7617027282714843,0.3464944839477539,0
0.7611522674560547,0.3464406967163086,0
0.7607425689697266,0.3464406967163086,0
0.7600936889648438,0.3464515686035156,0
0.7600387573242188,0.3464515686035156,0
0.7620712280273437,0.3464000701904297,0
0.7615711212158203,0.3464000701904297,0
0.7609663009643555,0.3465190887451172,0
0.7612953186035156,0.3465190887451172,0
0.7612232208251953,0.3470483779907226,0
0.7622034072875976,0.3470483779907226,0
0.7619350433349609,0.3472972869873047,0
0.7618120193481445,0.3472972869873047,0
0.7612632751464844,0.3477275848388672,0
0.7615648269653320,0.3477275848388672,0
0.7637289047241210,0.3479598999023437,0
0.7633758544921875,0.3479598999023437,0
0.7628042221069335,0.3483060836791992,0
0.7632419586181640,0.3483060836791992,0
0.7632728576660156,0.3489292144775391,0
0.7642101287841797,0.3489292144775391,0
0.7640510559082031,0.3492862701416016,0
0.7638771057128906,0.3492862701416016,0
0.7633535385131835,0.3496227264404297,0
0.7634988784790039,0.3496227264404297,0
0.7658397674560546,0.3499408721923828,0
0.7655445098876953,0.3499408721923828,0
0.7649894714355469,0.3502470016479492,0
0.7653705596923828,0.3502470016479492,0
0.7654129028320312,0.3507951736450195,0
0.7663942337036133,0.3507951736450195,0
0.7661035537719726,0.3512741088867187,0
0.7659421920776367,0.3512741088867187,0
0.7653562545776367,0.3514497756958008,0
0.7655467987060547,0.3514497756958008,0
0.7677864074707031,0.3516460418701172,0
0.7674081802368163,0.3516460418701172,0
0.7668977737426758,0.3519865036010742,0
0.7671730041503906,0.3519865036010742,0
0.7673040390014648,0.3524534225463867,0
0.7679866790771485,0.3524534225463867,0
0.7680313110351562,0.3528888702392578,0
0.7674762725830078,0.3528888702392578,0
0.7672822952270507,0.3529758453369141,0
0.7670539855957031,0.3529758453369141,0
0.7692718505859375,0.3532030105590820,0
0.7685657501220703,0.3532030105590820,0
0.7683769226074219,0.3532854080200195,0
0.7683385848999024,0.3532854080200195,0
0.7684999465942383,0.3535343170166015,0
0.7689502716064452,0.3535343170166015,0
0.7689073562622070,0.3538913726806641,0
0.7685852050781250,0.3538913726806641,0
0.7682567596435547,0.3538169860839844,0
0.7682636260986327,0.3538169860839844,0
0.7699321746826172,0.3539628982543945,0
0.7695613861083984,0.3539628982543945,0
0.7691940307617188,0.3540624618530273,0
0.7693920135498047,0.3540624618530273,0
0.7693199157714844,0.3542793273925781,0
0.7698972702026367,0.3542793273925781,0
0.7698520660400391,0.3546987533569336,0
0.7694503784179687,0.3546987533569336,0
0.7691465377807617,0.3546678543090820,0
0.7690635681152344,0.3546678543090820,0
0.7707721710205078,0.3547227859497070,0
0.7703516006469726,0.3547227859497070,0
0.7699430465698242,0.3548921585083007,0
0.7700649261474609,0.3548921585083007,0
0.7701473236083984,0.3549831390380859,0
0.7706451416015625,0.3549831390380859,0
0.7705255508422851,0.3553613662719726,0
0.7702394485473633,0.3553613662719726,0
0.7698972702026367,0.3552692413330078,0
0.7698148727416992,0.3552692413330078,0
0.7712545394897461,0.3553413391113281,0
0.7710182189941406,0.3553413391113281,0
0.7706108093261719,0.3554557800292968,0
0.7707876205444336,0.3554557800292968,0
0.7707641601562499,0.3556079864501953,0
0.7711996078491211,0.3556079864501953,0
0.7711114883422852,0.3559879302978515,0
0.7708459854125976,0.3559879302978515,0
0.7704317092895507,0.3559123992919922,0
0.7704608917236327,0.3559123992919922,0
0.7719017028808594,0.3559553146362305,0
0.7717237472534180,0.3559553146362305,0
0.7712087631225586,0.3561115264892578,0
0.7714359283447265,0.3561115264892578,0
0.7714027404785156,0.3562362670898437,0
0.7720247268676758,0.3562362670898437,0
0.7718461990356446,0.3568124771118164,0
0.7716459274291992,0.3568124771118164,0
0.7712448120117187,0.3567203521728515,0
0.7712722778320312,0.3567203521728515,0
0.7728710174560547,0.3568765640258789,0
0.7726741790771484,0.3568765640258789,0
0.7721483230590820,0.3569812774658203,0
0.7724241256713867,0.3569812774658203,0
0.7721849441528320,0.3570699691772461,0
0.7727468490600585,0.3570699691772461,0
0.7724287033081054,0.3573904037475586,0
0.7719680786132812,0.3573904037475586,0
0.7708328247070312,0.3563323974609375,0
0.7702331542968750,0.3563323974609375,0
0.7708047866821289,0.3548212051391602,0
0.7691780090332031,0.3548212051391602,0
0.7671106338500976,0.3523979187011719,0
0.7654724121093750,0.3523979187011719,0
0.7633810043334961,0.3491323471069336,0
0.7614395141601562,0.3491323471069336,0
0.7586992263793945,0.3453397750854492,0
0.7558301925659180,0.3453397750854492,0
0.7529382705688477,0.3410831451416015,0
0.7508228302001952,0.3410831451416015,0
0.7506757736206054,0.3379846572875976,0
0.7488315582275390,0.3379846572875976,0
0.7470245361328125,0.3360328674316406,0
0.7463899612426758,0.3360328674316406,0
0.7457983016967773,0.3352535247802734,0
0.7464992523193359,0.3352535247802734,0
0.7464597702026367,0.3361513137817383,0
0.7468992233276367,0.3361513137817383,0
0.7467761993408203,0.3369747161865234,0
0.7480173110961914,0.3369747161865234,0
0.7506963729858398,0.3388023376464844,0
0.7516839981079101,0.3388023376464844,0
0.7519666671752929,0.3407518386840820,0
0.7535785675048828,0.3407518386840820,0
0.7542909622192383,0.3426315307617188,0
0.7561717987060547,0.3426315307617188,0
0.7566873550415039,0.3448396682739258,0
0.7573980331420899,0.3448396682739258,0
0.7571634292602539,0.3454994201660156,0
0.7578454971313476,0.3454994201660156,0
0.7601314544677734,0.3464635848999023,0
0.7604307174682617,0.3464635848999023,0
0.7601028442382812,0.3472274780273437,0
0.7607648849487304,0.3472274780273437,0
0.7608461380004883,0.3479564666748047,0
0.7618783950805664,0.3479564666748047,0
0.7620534896850586,0.3491615295410156,0
0.7621084213256836,0.3491615295410156,0
0.7616100311279297,0.3491363525390625,0
0.7619619369506836,0.3491363525390625,0
0.7640190124511719,0.3496490478515625,0
0.7640968322753906,0.3496490478515625,0
0.7635509490966796,0.3500873565673828,0
0.7640682220458984,0.3500873565673828,0
0.7639566421508789,0.3505033493041992,0
0.7647411346435546,0.3505033493041992,0
0.7645317077636719,0.3514560699462890,0
0.7645317077636719,0.3508426666259766,0
0.7638404846191406,0.3506967544555664,0
0.7646266937255859,0.3510068893432617,0
0.7649906158447265,0.3516832351684570,0
0.7646221160888672,0.3516832351684570,0
0.7636831283569335,0.3507940292358399,0
0.7636264801025391,0.3507940292358399,0
0.7652561187744140,0.3506692886352539,0
0.7647686004638672,0.3506692886352539,0
0.7639068603515625,0.3503751754760742,0
0.7640922546386718,0.3503751754760742,0
0.7636259078979492,0.3502996444702148,0
0.7640590667724609,0.3502996444702148,0
0.7637758255004883,0.3508975982666016,0
0.7633638381958008,0.3508975982666016,0
0.7625289916992187,0.3499872207641602,0
0.7625232696533203,0.3499872207641602,0
0.7642753601074218,0.3500049591064453,0
0.7639366149902344,0.3500049591064453,0
0.7632591247558593,0.3499008178710937,0
0.7634737014770507,0.3499008178710937,0
0.7632133483886718,0.3499792098999023,0
0.7637128829956055,0.3499792098999023,0
0.7636407852172852,0.3509588241577148,0
0.7632837295532227,0.3509588241577148,0
0.7625141143798828,0.3501554489135742,0
0.7626296997070312,0.3501554489135742,0
0.7645231246948242,0.3503288269042968,0
0.7643623352050781,0.3503288269042968,0
0.7636842727661133,0.3505016326904297,0
0.7641117095947265,0.3505016326904297,0
0.7639057159423828,0.3507150650024414,0
0.7646244049072265,0.3507150650024414,0
0.7647165298461914,0.3519132614135742,0
0.7645191192626953,0.3519132614135742,0
0.7638690948486327,0.3513175964355469,0
0.7640716552734375,0.3513175964355469,0
0.7660491943359374,0.3516248703002929,0
0.7660068511962891,0.3516248703002929,0
0.7653888702392578,0.3519092559814453,0
0.7658025741577148,0.3519092559814453,0
0.7655622482299804,0.3520998001098632,0
0.7662729263305664,0.3520998001098632,0
0.7662860870361328,0.3532894134521484,0
0.7660125732421875,0.3532894134521484,0
0.7653356552124023,0.3525375366210937,0
0.7654878616333007,0.3525375366210937,0
0.7672943115234375,0.3528631210327148,0
0.7672107696533202,0.3528631210327148,0
0.7666254043579102,0.3530611038208007,0
0.7670162200927734,0.3530611038208007,0
0.7668537139892578,0.3532951354980469,0
0.7675689697265625,0.3532951354980469,0
0.7677263259887696,0.3546295166015625,0
0.7674625396728515,0.3546295166015625,0
0.7668617248535156,0.3539606094360351,0
0.7671175003051758,0.3539606094360351,0
0.7689096450805664,0.3542839050292969,0
0.7688524246215820,0.3542839050292969,0
0.7683219909667969,0.3545368194580078,0
0.7687253952026367,0.3545368194580078,0
0.7685388565063477,0.3546644210815429,0
0.7691213607788085,0.3546644210815429,0
0.7692174911499023,0.3559364318847656,0
0.7689496994018554,0.3559364318847656,0
0.7683340072631836,0.3551290512084961,0
0.7684719085693359,0.3551290512084961,0
0.7701890945434570,0.3554002761840820,0
0.7702033996582031,0.3554002761840820,0
0.7696443557739258,0.3556423187255859,0
0.7700403213500976,0.3556423187255859,0
0.7698097229003906,0.3557744979858398,0
0.7704505920410156,0.3557744979858398,0
0.7706136703491211,0.3571907043457031,0
0.7703779220581054,0.3571907043457031,0
0.7696048736572265,0.3562751770019531,0
0.7698303222656250,0.3562751770019531,0
0.7714908599853515,0.3564977645874023,0
0.7714565277099609,0.3564977645874023,0
0.7708253860473633,0.3566602706909179,0
0.7711315155029297,0.3566602706909179,0
0.7708894729614257,0.3566551208496094,0
0.7714433670043945,0.3566551208496094,0
0.7714834213256836,0.3580095291137695,0
0.7712076187133788,0.3580095291137695,0
0.7704809188842773,0.3569211959838867,0
0.7706022262573242,0.3569211959838867,0
0.7722410202026367,0.3572381973266601,0
0.7721511840820312,0.3572381973266601,0
0.7715332031250000,0.3573743820190430,0
0.7718845367431640,0.3573743820190430,0
0.7716035842895508,0.3573314666748047,0
0.7722095489501953,0.3573314666748047,0
0.7722673416137695,0.3587757110595703,0
0.7720476150512695,0.3587757110595703,0
0.7713718414306641,0.3577394485473633,0
0.7714988708496093,0.3577394485473633,0
0.7730684280395508,0.3580089569091797,0
0.7731193542480469,0.3580089569091797,0
0.7724773406982421,0.3582349777221679,0
0.7729310989379883,0.3582349777221679,0
0.7726530075073242,0.3582080841064453,0
0.7731679916381836,0.3582080841064453,0
0.7732847213745117,0.3596780776977539,0
0.7730684280395508,0.3596780776977539,0
0.7724195480346679,0.3586549758911133,0
0.7725574493408203,0.3586549758911133,0
0.7741447448730469,0.3589530944824219,0
0.7740989685058594,0.3589530944824219,0
0.7734924316406250,0.3591751098632812,0
0.7739639282226562,0.3591751098632812,0
0.7735713958740235,0.3590108871459961,0
0.7739599227905273,0.3590108871459961,0
0.7739730834960937,0.3602474212646484,0
0.7733018875122070,0.3602474212646484,0
0.7721466064453125,0.3582029342651367,0
0.7712053298950196,0.3582029342651367,0
0.7717449188232421,0.3566722869873047,0
0.7701965332031250,0.3566722869873047,0
0.7681074142456055,0.3542873382568359,0
0.7665430068969726,0.3542873382568359,0
0.7644933700561524,0.3508358001708984,0
0.7623876571655274,0.3508358001708984,0
0.7603300094604492,0.3483003616333007,0
0.7573631286621093,0.3483003616333007,0
0.7548368453979492,0.3435453414916992,0
0.7529262542724610,0.3435453414916992,0
0.7531105041503906,0.3411895751953125,0
0.7518722534179687,0.3411895751953125,0
0.7505762100219726,0.3400434494018554,0
0.7505773544311524,0.3400434494018554,0
0.7503227233886719,0.3396800994873047,0
0.7511381149291992,0.3396800994873047,0
0.7518407821655273,0.3422349929809570,0
0.7524547576904297,0.3422349929809570,0
0.7528192520141601,0.3426338195800781,0
0.7539693832397460,0.3426338195800781,0
0.7563806533813476,0.3446611404418945,0
0.7575645446777344,0.3446611404418945,0
0.7579576492309570,0.3465723037719726,0
0.7593469619750977,0.3465723037719726,0
0.7597314834594726,0.3475908279418945,0
0.7607803344726562,0.3475908279418945,0
0.7615699768066406,0.3501766204833984,0
0.7617359161376953,0.3501766204833984,0
0.7615688323974609,0.3496770858764648,0
0.7620374679565429,0.3496770858764648,0
0.7637226104736328,0.3504386901855469,0
0.7640665054321288,0.3504386901855469,0
0.7638393402099609,0.3511608123779297,0
0.7644733428955078,0.3511608123779297,0
0.7643783569335937,0.3512769699096679,0
0.7650512695312500,0.3512769699096679,0
0.7654918670654297,0.3534198760986328,0
0.7654695510864258,0.3534198760986328,0
0.7652046203613281,0.3525215148925781,0
0.7654666900634766,0.3525215148925781,0
0.7670288085937500,0.3531715393066406,0
0.7673847198486328,0.3531715393066406,0
0.7669240951538085,0.3537546157836914,0
0.7674860000610352,0.3537546157836914,0
0.7672136306762695,0.3536733627319336,0
0.7677280426025390,0.3536733627319336,0
0.7680976867675781,0.3555536270141602,0
0.7678001403808593,0.3555536270141602,0
0.7673114776611328,0.3542707443237305,0
0.7672124862670898,0.3542707443237305,0
0.7685079574584961,0.3543983459472656,0
0.7684822082519531,0.3543983459472656,0
0.7677646636962890,0.3544572830200195,0
0.7679197311401367,0.3544572830200195,0
0.7674619674682617,0.3538204193115234,0
0.7676519393920899,0.3538204193115234,0
0.7677955627441406,0.3553098678588867,0
0.7672719955444336,0.3553098678588867,0
0.7666694641113281,0.3537191390991211,0
0.7664583206176757,0.3537191390991211,0
0.7674865722656250,0.3536693572998047,0
0.7674539566040038,0.3536693572998047,0
0.7667890548706054,0.3537488937377929,0
0.7663204193115234,0.3533815383911132,0
0.7671867370605469,0.3530776977539062,0
0.7665876388549805,0.3547239303588867,0
0.7666500091552734,0.3535669326782226,0
0.7665143966674804,0.3530433654785156,0
0.7672588348388671,0.3530290603637695,0
0.7668462753295898,0.3542175292968750,0
0.7665412902832031,0.3536590576171875,0
0.7670471191406250,0.3535566329956055,0
0.7678064346313477,0.3555364608764648,0
0.7673063278198242,0.3542667388916015,0
0.7674528121948242,0.3544326782226562,0
0.7690870285034179,0.3549030303955078,0
0.7688518524169922,0.3563501358032227,0
0.7683940887451172,0.3552955627441406,0
0.7689474105834960,0.3551261901855469,0
0.7696838378906250,0.3569366455078125,0
0.7690824508666992,0.3561595916748047,0
0.7690824508666992,0.3559209823608399,0
0.7704339981079101,0.3564039230346679,0
0.7701965332031250,0.3571866989135742,0
0.7707149505615234,0.3568719863891601,0
0.7708293914794921,0.3564834594726562,0
0.7712116241455078,0.3586503982543945,0
0.7710897445678710,0.3576250076293945,0
0.7712888717651367,0.3571495056152343,0
0.7720218658447265,0.3571495056152343,0
0.7719114303588867,0.3586561203002930,0
0.7724109649658203,0.3583688735961914,0
0.7728578567504882,0.3579231262207031,0
0.7728578567504882,0.3585388183593750,0
0.7726135253906250,0.3588907241821289,0
0.7723142623901367,0.3586915969848632,0
0.7734128952026367,0.3584529876708984,0
0.7732486724853516,0.3604619979858398,0
0.7731645584106445,0.3594921112060547,0
0.7735645294189453,0.3589427947998047,0
0.7739421844482421,0.3594680786132812,0
0.7737241744995117,0.3599184036254883,0
0.7734054565429688,0.3594251632690429,0
0.7739513397216796,0.3593278884887695,0
0.7742116928100585,0.3613552093505859,0
0.7742065429687500,0.3603801727294922,0
0.7742088317871093,0.3603612899780274,0
0.7747621536254883,0.3613620758056640,0
0.7744783401489258,0.3617242813110351,0
0.7742568969726562,0.3603137969970703,0
0.7750545501708984,0.3605838775634765,0
0.7751735687255860,0.3616733551025391,0
0.7746208190917968,0.3604333877563476,0
0.7744720458984374,0.3605913162231445,0
0.7753789901733398,0.3608465194702148,0
0.7754568099975586,0.3623605728149414,0
0.7748685836791992,0.3608814239501953,0
0.7751970291137695,0.3608814239501953,0
0.7760284423828124,0.3611989974975586,0
0.7758338928222656,0.3627096176147461,0
0.7754951477050781,0.3612831115722656,0
0.7757183074951172,0.3616939544677734,0
0.7761600494384765,0.3626478195190430,0
0.7758190155029296,0.3630231857299804,0
0.7755563735961913,0.3616046905517578,0
0.7759014129638672,0.3611406326293945,0
0.7763271331787109,0.3630426406860351,0
0.7757045745849609,0.3630426406860351,0
0.7746768951416015,0.3605730056762695,0
0.7736921310424805,0.3598846435546875,0
0.7711103439331054,0.3600585937500000,0
0.7713718414306641,0.3577898025512695,0
0.7679157257080078,0.3540687561035156,0
0.7665424346923828,0.3540687561035156,0
0.7618474960327148,0.3498315811157227,0
0.7601354598999023,0.3496788024902344,0
0.7582099914550781,0.3458724975585937,0
0.7562644958496093,0.3456407546997070,0
0.7551601409912109,0.3460882186889648,0
0.7544654846191406,0.3440237045288086,0
0.7547761917114257,0.3434360504150391,0
0.7556682586669922,0.3459955215454101,0
0.7557998657226562,0.3455371856689453,0
0.7571886062622070,0.3457231521606445,0
0.7592004776000977,0.3491495132446289,0
0.7598379135131835,0.3491495132446289,0
0.7613571166992187,0.3491603851318359,0
0.7614990234375000,0.3492845535278320,0
0.7637975692749023,0.3520906448364258,0
0.7643903732299805,0.3520620346069336,0
0.7670288085937500,0.3540058135986328,0
0.7679718017578124,0.3545448303222656,0
0.7679718017578124,0.3561784744262695,0
0.7681520462036132,0.3550935745239258,0
0.7682905197143555,0.3556417465209961,0
0.7692077636718749,0.3573017120361328,0
0.7692506790161132,0.3573017120361328,0
0.7695230484008789,0.3561893463134765,0
0.7695230484008789,0.3557619094848632,0
0.7703636169433593,0.3581342697143555,0
0.7700769424438476,0.3575077056884766,0
0.7701496124267578,0.3562980651855469,0
0.7704832077026367,0.3562980651855469,0
0.7703275680541992,0.3575489044189453,0
0.7705032348632812,0.3572708129882812,0
0.7697639465332031,0.3560600280761719,0
0.7701610565185547,0.3567232131958007,0
0.7697021484375000,0.3569103240966797,0
0.7696346282958985,0.3569103240966797,0
0.7694795608520507,0.3555147171020508,0
0.7694795608520507,0.3562042236328125,0
0.7690950393676758,0.3563484191894531,0
0.7689668655395507,0.3557819366455078,0
0.7690921783447265,0.3560171127319336,0
0.7692289352416992,0.3560171127319336,0
0.7690607070922851,0.3563278198242187,0
0.7690607070922851,0.3558792114257812,0
0.7692598342895508,0.3561452865600586,0
0.7693622589111327,0.3570802688598633,0
0.7693542480468750,0.3562362670898437,0
0.7693284988403321,0.3562362670898437,0
0.7699687957763671,0.3576141357421875,0
0.7699687957763671,0.3580215454101562,0
0.7701828002929687,0.3568943023681641,0
0.7700677871704101,0.3573806762695312,0
0.7706857681274414,0.3587556838989258,0
0.7705570220947265,0.3587556838989258,0
0.7708230972290039,0.3576433181762695,0
0.7708230972290039,0.3571065902709961,0
0.7716018676757812,0.3595058441162109,0
0.7715692520141602,0.3591144561767578,0
0.7719165802001953,0.3588409423828125,0
0.7718730926513672,0.3578905105590820,0
0.7723102569580078,0.3602891921997070,0
0.7724452972412109,0.3594303131103516,0
0.7725242614746094,0.3585920333862305,0
0.7730501174926757,0.3587385177612304,0
0.7731765747070313,0.3603784561157227,0
0.7738929748535156,0.3601060867309570,0
0.7734563827514648,0.3593004226684570,0
0.7737939834594726,0.3601570129394531,0
0.7740159988403320,0.3608716964721679,0
0.7743055343627929,0.3608716964721679,0
0.7745590209960938,0.3599447250366211,0
0.7745590209960938,0.3609180450439453,0
0.7754196166992188,0.3615646362304688,0
0.7751724243164062,0.3612030029296875,0
0.7753240585327148,0.3607000350952148,0
0.7754310607910156,0.3622707366943359,0
0.7759523391723633,0.3620063781738281,0
0.7758424758911132,0.3611200332641601,0
0.7758424758911132,0.3619028091430664,0
0.7765113830566406,0.3624046325683594,0
0.7762990951538086,0.3620882034301758,0
0.7762899398803711,0.3614610671997070,0
0.7762498855590820,0.3634969711303711,0
0.7760931015014648,0.3634969711303711,0
0.7766590118408203,0.3624332427978516,0
0.7762847900390625,0.3624332427978516,0
0.7765966415405273,0.3625820159912109,0
0.7768409729003906,0.3625820159912109,0
0.7766258239746093,0.3630855560302734,0
0.7771825790405273,0.3630855560302734,0
0.7767786026000977,0.3621654510498047,0
0.7763992309570312,0.3621654510498047,0
0.7774572372436523,0.3642803192138672,0
0.7773347854614258,0.3642803192138672,0
0.7773593902587891,0.3630128860473633,0
0.7769903182983399,0.3630128860473633,0
0.7777696609497070,0.3633150100708007,0
0.7777696609497070,0.3637722015380859,0
0.7777696609497070,0.3643810272216797,0
0.7781301498413086,0.3632703781127929,0
0.7777765274047851,0.3629259109497070,0
0.7775447845458984,0.3629259109497070,0
0.7778057098388672,0.3645818710327148,0
0.7775585174560546,0.3645818710327148,0
0.7781948089599610,0.3637298583984375,0
0.7779830932617188,0.3637298583984375,0
0.7781770706176757,0.3638305664062500,0
0.7783412933349609,0.3638305664062500,0
0.7781730651855469,0.3641784667968750,0
0.7786273956298828,0.3641784667968750,0
0.7783121109008789,0.3633625030517578,0
0.7780523300170898,0.3633625030517578,0
0.7784088134765624,0.3647970199584961,0
0.7782789230346679,0.3647970199584961,0
0.7784711837768554,0.3635547637939453,0
0.7776340484619141,0.3635547637939453,0
0.7771688461303711,0.3625997543334961,0
0.7762063980102539,0.3625997543334961,0
0.7749835968017578,0.3609237670898438,0
0.7737693786621094,0.3609237670898438,0
0.7717901229858398,0.3573663711547851,0
0.7693056106567383,0.3573663711547851,0
0.7675529479980469,0.3546924591064453,0
0.7644012451171874,0.3546924591064453,0
0.7629272460937500,0.3498012542724609,0
0.7600547790527343,0.3498012542724609,0
0.7582546234130859,0.3463520050048828,0
0.7562650680541992,0.3463520050048828,0
0.7546056747436524,0.3436798095703125,0
0.7535522460937499,0.3436798095703125,0
0.7522190093994140,0.3411729812622070,0
0.7513835906982421,0.3411729812622070,0
0.7514980316162109,0.3419706344604492,0
0.7514688491821289,0.3419706344604492,0
0.7524673461914062,0.3419488906860351,0
0.7528919219970703,0.3419488906860351,0
0.7536506652832031,0.3432666778564453,0
0.7547430038452149,0.3432666778564453,0
0.7555612564086914,0.3451360702514648,0
0.7570610046386719,0.3451360702514648,0
0.7576383590698242,0.3461231231689453,0
0.7585281372070313,0.3461231231689453,0
0.7595443725585938,0.3489343643188477,0
0.7605863571166992,0.3489343643188477,0
0.7618612289428711,0.3497240066528320,0
0.7623252868652344,0.3497240066528320,0
0.7630496978759765,0.3508735656738281,0
0.7637861251831054,0.3508735656738281,0
0.7640945434570312,0.3520168304443359,0
0.7650329589843750,0.3520168304443359,0
0.7650667190551758,0.3520179748535156,0
0.7652744293212891,0.3520179748535156,0
0.7657052993774414,0.3537271499633789,0
0.7659959793090820,0.3537271499633789,0
0.7668725967407226,0.3535943984985351,0
0.7668857574462891,0.3535943984985351,0
0.7672668457031250,0.3542667388916015,0
0.7678207397460938,0.3542667388916015,0
0.7681354522705078,0.3552577972412109,0
0.7689634323120117,0.3552577972412109,0
0.7688570022583008,0.3550512313842774,0
0.7689571380615234,0.3550512313842774,0
0.7693988800048828,0.3566762924194336,0
0.7695190429687500,0.3566762924194336,0
0.7704122543334960,0.3564863204956055,0
0.7702537536621094,0.3564863204956055,0
0.7704912185668945,0.3567947387695312,0
0.7706794738769531,0.3567947387695312,0
0.7705667495727538,0.3571443557739258,0
0.7711549758911133,0.3571443557739258,0
0.7706096649169921,0.3564977645874023,0
0.7704219818115234,0.3564977645874023,0
0.7704551696777343,0.3574361801147461,0
0.7704053878784179,0.3574361801147461,0
0.7707321166992187,0.3565092086791992,0
0.7701238632202149,0.3565092086791992,0
0.7698154449462891,0.3559701919555664,0
0.7697061538696289,0.3559701919555664,0
0.7693891525268555,0.3558963775634765,0
0.7698205947875977,0.3558963775634765,0
0.7694074630737304,0.3551748275756836,0
0.7690944671630859,0.3551748275756836,0
0.7691637039184570,0.3563026428222656,0
0.7691688537597656,0.3563026428222656,0
0.7697307586669921,0.3557407379150391,0
0.7695722579956055,0.3557407379150391,0
0.7695579528808594,0.3558477401733398,0
0.7698045730590820,0.3558477401733398,0
0.7698062896728516,0.3563163757324219,0
0.7704820632934570,0.3563163757324219,0
0.7701038360595703,0.3559278488159179,0
0.7700523376464844,0.3559278488159179,0
0.7703041076660156,0.3571935653686523,0
0.7704156875610352,0.3571935653686523,0
0.7710159301757812,0.3567157745361328,0
0.7707681655883789,0.3567157745361328,0
0.7707750320434570,0.3568536758422852,0
0.7709856033325195,0.3568536758422852,0
0.7709341049194336,0.3572862625122070,0
0.7716121673583984,0.3572862625122070,0
0.7712179183959961,0.3568107604980469,0
0.7711538314819336,0.3568107604980469,0
0.7712442398071289,0.3580347061157226,0
0.7713323593139648,0.3580347061157226,0
0.7720979690551758,0.3576307296752930,0
0.7718713760375976,0.3576307296752930,0
0.7717975616455078,0.3578418731689453,0
0.7720733642578125,0.3578418731689453,0
0.7721654891967773,0.3582813262939453,0
0.7728200912475586,0.3582813262939453,0
0.7724195480346679,0.3578636169433594,0
0.7722621917724609,0.3578636169433594,0
0.7723863601684570,0.3590412139892578,0
0.7724636077880859,0.3590412139892578,0
0.7733282089233399,0.3586029052734375,0
0.7729831695556640,0.3586029052734375,0
0.7728979110717773,0.3587333679199219,0
0.7731021881103516,0.3587333679199219,0
0.7730546951293945,0.3590784072875977,0
0.7736274719238281,0.3590784072875977,0
0.7732360839843749,0.3585811614990234,0
0.7730695724487304,0.3585811614990234,0
0.7731382369995117,0.3596786499023437,0
0.7732160568237304,0.3596786499023437,0
0.7740789413452148,0.3592798233032227,0
0.7737075805664062,0.3592798233032227,0
0.7735937118530273,0.3593999862670899,0
0.7739055633544921,0.3593999862670899,0
0.7737710952758788,0.3596872329711914,0
0.7743467330932617,0.3596872329711914,0
0.7738471984863281,0.3591241836547852,0
0.7737304687500000,0.3591241836547852,0
0.7738185882568359,0.3602617263793945,0
0.7738397598266601,0.3602617263793945,0
0.7747770309448242,0.3598131179809570,0
0.7744010925292969,0.3598131179809570,0
0.7742036819458008,0.3598634719848633,0
0.7743839263916016,0.3598634719848633,0
0.7743375778198242,0.3601942062377930,0
0.7750087738037109,0.3601942062377930,0
0.7744640350341797,0.3596889495849609,0
0.7743095397949219,0.3596889495849609,0
0.7743644714355469,0.3607978820800781,0
0.7743541717529296,0.3607978820800781,0
0.7752073287963867,0.3602926254272461,0
0.7748880386352539,0.3602926254272461,0
0.7745864868164062,0.3603532791137695,0
0.7748989105224610,0.3603532791137695,0
0.7747507095336914,0.3606456756591797,0
0.7754396438598633,0.3606456756591797,0
0.7749452590942383,0.3600488662719726,0
0.7746854782104492,0.3600488662719726,0
0.7747976303100585,0.3610845565795898,0
0.7748353958129882,0.3610845565795898,0
0.7756273269653320,0.3606204986572266,0
0.7752187728881835,0.3606204986572266,0
0.7751203536987304,0.3606903076171875,0
0.7753618240356445,0.3606903076171875,0
0.7751209259033203,0.3609809875488281,0
0.7758104324340820,0.3609809875488281,0
0.7752799987792969,0.3604694366455078,0
0.7750825881958008,0.3604694366455078,0
0.7751832962036133,0.3614255905151367,0
0.7751998901367188,0.3614255905151367,0
0.7761188507080078,0.3610227584838867,0
0.7757726669311523,0.3610227584838867,0
0.7755975723266602,0.3611515045166016,0
0.7759437561035156,0.3611515045166016,0
0.7757503509521484,0.3614593505859375,0
0.7764575958251952,0.3614593505859375,0
0.7759586334228515,0.3610290527343750,0
0.7757720947265625,0.3610290527343750,0
0.7758459091186524,0.3619691848754883,0
0.7758275985717773,0.3619691848754883,0
0.7768060684204101,0.3615245819091797,0
0.7762264251708985,0.3615245819091797,0
0.7757486343383789,0.3612213134765625,0
0.7756021499633788,0.3612213134765625,0
0.7750333786010742,0.3607681274414062,0
0.7749446868896485,0.3607681274414062,0
0.7736646652221679,0.3588764190673828,0
0.7724899291992188,0.3588764190673828,0
0.7710857391357422,0.3577325820922851,0
0.7696477890014648,0.3577325820922851,0
0.7694263458251953,0.3551404953002930,0
0.7675283432006835,0.3551404953002930,0
0.7661298751831055,0.3531383514404297,0
0.7649173736572266,0.3531383514404297,0
0.7640178680419921,0.3515911102294922,0
0.7637609481811524,0.3496662139892578,0
0.7615774154663085,0.3496662139892578,0
0.7609130859375000,0.3496238708496094,0
0.7606075286865234,0.3496238708496094,0
0.7614349365234375,0.3488920211791992,0
0.7610040664672851,0.3488920211791992,0
0.7607860565185547,0.3490385055541992,0
0.7611808776855469,0.3490385055541992,0
0.7612810134887695,0.3496690750122070,0
0.7621810913085937,0.3496690750122070,0
0.7618228912353515,0.3495403289794922,0
0.7618669509887696,0.3495403289794922,0
0.7619127273559571,0.3506761550903320,0
0.7621902465820313,0.3506761550903320,0
0.7634113311767577,0.3506750106811523,0
0.7633243560791015,0.3506750106811523,0
0.7631778717041016,0.3510835647583008,0
0.7636104583740234,0.3510835647583008,0
0.7637083053588867,0.3516992568969726,0
0.7646472930908202,0.3516992568969726,0
0.7642461776733398,0.3514915466308594,0
0.7641368865966797,0.3514915466308594,0
0.7641506195068359,0.3524173736572265,0
0.7643995285034180,0.3524173736572265,0
0.7655891418457031,0.3522863388061523,0
0.7652544021606446,0.3522863388061523,0
0.7649826049804688,0.3525352478027344,0
0.7654088973999024,0.3525352478027344,0
0.7654392242431640,0.3530101776123047,0
0.7661825180053711,0.3530101776123047,0
0.7657934188842773,0.3528099060058594,0
0.7656881332397460,0.3528099060058594,0
0.7656858444213867,0.3536973953247070,0
0.7658649444580078,0.3536973953247070,0
0.7669870376586914,0.3534988403320312,0
0.7666151046752929,0.3534988403320312,0
0.7662969589233398,0.3535989761352539,0
0.7665166854858398,0.3535989761352539,0
0.7664262771606445,0.3538284301757812,0
0.7670562744140624,0.3538284301757812,0
0.7665493011474609,0.3533283233642578,0
0.7661058425903320,0.3533283233642578,0
0.7658803939819335,0.3538249969482422,0
0.7658157348632812,0.3538249969482422,0
0.7667324066162109,0.3532699584960937,0
0.7661230087280273,0.3532699584960937,0
0.7656171798706054,0.3530405044555664,0
0.7657608032226563,0.3530405044555664,0
0.7654500961303711,0.3530479431152344,0
0.7659547805786132,0.3530479431152344,0
0.7652292251586914,0.3523818969726563,0
0.7648395538330078,0.3523818969726563,0
0.7646221160888672,0.3527320861816406,0
0.7645202636718750,0.3527320861816406,0
0.7655199050903320,0.3523166656494141,0
0.7650026321411133,0.3523166656494141,0
0.7645122528076171,0.3521999359130859,0
0.7646942138671875,0.3521999359130859,0
0.7645351409912109,0.3523979187011719,0
0.7651800155639649,0.3523979187011719,0
0.7646186828613281,0.3519252777099609,0
0.7643823623657227,0.3519252777099609,0
0.7642341613769531,0.3524780273437500,0
0.7643869400024413,0.3524780273437500,0
0.7654180526733398,0.3522943496704101,0
0.7651073455810546,0.3522943496704101,0
0.7647708892822266,0.3524059295654297,0
0.7650266647338867,0.3524059295654297,0
0.7649511337280274,0.3527252197265625,0
0.7657665252685547,0.3527252197265625,0
0.7653207778930664,0.3525741577148437,0
0.7651056289672852,0.3525741577148437,0
0.7650741577148438,0.3531635284423828,0
0.7651966094970702,0.3531635284423828,0
0.7663793563842773,0.3529912948608399,0
0.7659690856933593,0.3529912948608399,0
0.7656063079833985,0.3531188964843750,0
0.7659605026245117,0.3531188964843750,0
0.7659627914428710,0.3534387588500976,0
0.7666849136352539,0.3534387588500976,0
0.7662866592407226,0.3532653808593750,0
0.7660228729248046,0.3532653808593750,0
0.7659610748291016,0.3539056777954102,0
0.7659999847412109,0.3539056777954102,0
0.7672382354736328,0.3537666320800781,0
0.7668525695800781,0.3537666320800781,0
0.7665321350097656,0.3538679122924804,0
0.7668788909912109,0.3538679122924804,0
0.7667627334594727,0.3542638778686523,0
0.7674304962158203,0.3542638778686523,0
0.7670814514160156,0.3539846420288086,0
0.7669200897216797,0.3539846420288086,0
0.7668222427368164,0.3545677185058594,0
0.7668828964233398,0.3545677185058594,0
0.7681543350219726,0.3544681549072266,0
0.7677709579467773,0.3544681549072266,0
0.7674081802368163,0.3545883178710937,0
0.7677663803100586,0.3545883178710937,0
0.7676948547363281,0.3549757003784180,0
0.7683889389038085,0.3549757003784180,0
0.7680496215820313,0.3548000335693359,0
0.7678041458129883,0.3548000335693359,0
0.7676702499389648,0.3553178787231445,0
0.7676599502563476,0.3553178787231445,0
0.7690235137939453,0.3552337646484375,0
0.7686813354492187,0.3552337646484375,0
0.7682498931884766,0.3552698135375976,0
0.7685451507568359,0.3552698135375976,0
0.7684295654296874,0.3555936813354492,0
0.7691333770751952,0.3555936813354492,0
0.7687637329101562,0.3553979873657226,0
0.7684404373168945,0.3553979873657226,0
0.7682624816894531,0.3558162689208984,0
0.7683185577392578,0.3558162689208984,0
0.7695705413818359,0.3556880950927734,0
0.7692123413085937,0.3556880950927734,0
0.7687494277954101,0.3557762145996093,0
0.7689760208129882,0.3557762145996093,0
0.7689245223999023,0.3560434341430664,0
0.7696592330932617,0.3560434341430664,0
0.7692838668823242,0.3558717727661133,0
0.7689342498779297,0.3558717727661133,0
0.7687986373901367,0.3562969207763672,0
0.7688604354858398,0.3562969207763672,0
0.7701198577880859,0.3561870574951172,0
0.7697650909423828,0.3561870574951172,0
0.7693124771118164,0.3562442779541016,0
0.7696214675903320,0.3562442779541016,0
0.7695648193359375,0.3565492630004883,0
0.7702445983886719,0.3565492630004883,0
0.7699298858642578,0.3564434051513672,0
0.7696174621582031,0.3564434051513672,0
0.7694887161254883,0.3568262100219726,0
0.7695751190185547,0.3568262100219726,0
0.7708671569824218,0.3567363739013672,0
0.7705238342285156,0.3567363739013672,0
0.7700963973999023,0.3568651199340820,0
0.7703750610351562,0.3568651199340820,0
0.7702686309814453,0.3570676803588867,0
0.7708305358886719,0.3570676803588867,0
0.7704368591308594,0.3569194793701172,0
0.7699453353881835,0.3569194793701172,0
0.7693691253662109,0.3566488265991211,0
0.7689519882202148,0.3566488265991211,0
0.7696563720703125,0.3555536270141602,0
0.7683345794677734,0.3555536270141602,0
0.7668989181518554,0.3540332794189453,0
0.7659078598022461,0.3540332794189453,0
0.7646810531616210,0.3522085189819336,0
0.7638570785522460,0.3522085189819336,0
0.7623664855957031,0.3501279830932617,0
0.7607946395874023,0.3501279830932617,0
0.7596176147460937,0.3485452651977539,0
0.7585762023925781,0.3485452651977539,0
0.7590442657470703,0.3470237731933594,0
0.7578163146972656,0.3470237731933594,0
0.7568126678466797,0.3459337234497070,0
0.7565420150756835,0.3459337234497070,0
0.7562908172607422,0.3456344604492188,0
0.7567417144775390,0.3456344604492188,0
0.7563920974731445,0.3454856872558594,0
0.7561500549316406,0.3454856872558594,0
0.7559314727783203,0.3458215713500977,0
0.7560768127441406,0.3458215713500977,0
0.7574546813964843,0.3460264205932617,0
0.7572978973388672,0.3460264205932617,0
0.7570878982543945,0.3463760375976562,0
0.7575553894042969,0.3463760375976562,0
0.7576000213623046,0.3469167709350586,0
0.7583822250366211,0.3469167709350586,0
0.7583810806274414,0.3472269058227539,0
0.7582952499389648,0.3472269058227539,0
0.7581619262695313,0.3477396011352539,0
0.7583478927612305,0.3477396011352539,0
0.7598161697387695,0.3479146957397461,0
0.7596313476562500,0.3479146957397461,0
0.7593235015869141,0.3482162475585938,0
0.7597486495971679,0.3482162475585938,0
0.7597927093505860,0.3486448287963867,0
0.7604433059692383,0.3486448287963867,0
0.7603374481201172,0.3488874435424805,0
0.7602304458618164,0.3488874435424805,0
0.7599935531616211,0.3491632461547852,0
0.7601886749267578,0.3491632461547852,0
0.7615493774414063,0.3493812561035156,0
0.7614000320434570,0.3493812561035156,0
0.7609668731689453,0.3496433258056640,0
0.7614103317260742,0.3496433258056640,0
0.7613983154296875,0.3499225616455078,0
0.7620174407958984,0.3499225616455078,0
0.7617742538452148,0.3501268386840820,0
0.7614778518676758,0.3501268386840820,0
0.7612283706665038,0.3501588821411133,0
0.7611688613891602,0.3501588821411133,0
0.7623167037963867,0.3500112533569336,0
0.7619052886962890,0.3500112533569336,0
0.7614177703857422,0.3498590469360351,0
0.7615150451660156,0.3498590469360351,0
0.7612255096435546,0.3497571945190430,0
0.7615013122558594,0.3497571945190430,0
0.7611631393432617,0.3495677947998047,0
0.7606962203979492,0.3495677947998047,0
0.7601663589477539,0.3493200302124023,0
0.7599781036376952,0.3493200302124023,0
0.7609983444213867,0.3489332199096680,0
0.7606092453002929,0.3489332199096680,0
0.7599014282226563,0.3487106323242187,0
0.7600536346435547,0.3487106323242187,0
0.7597909927368164,0.3485933303833008,0
0.7601903915405274,0.3485933303833008,0
0.7599065780639648,0.3486202239990234,0
0.7596788406372070,0.3486202239990234,0
0.7591672897338867,0.3485155105590820,0
0.7591283798217773,0.3485155105590820,0
0.7601308822631836,0.3484308242797852,0
0.7599443435668946,0.3487586975097656,0
0.7592525482177734,0.3484834671020507,0
0.7598218917846680,0.3485750198364257,0
0.7603860855102539,0.3487232208251953,0
0.7603466033935546,0.3488296508789062,0
0.7597372055053710,0.3489624023437500,0
0.7611076354980468,0.3491237640380859,0
0.7607574462890625,0.3496673583984375,0
0.7602533340454102,0.3492845535278320,0
0.7603815078735351,0.3495391845703125,0
0.7613525390625000,0.3500478744506836,0
0.7611711502075195,0.3499134063720703,0
0.7609245300292968,0.3499706268310547,0
0.7614063262939453,0.3500232696533203,0
0.7619270324707031,0.3504472732543945,0
0.7617107391357422,0.3502401351928711,0
0.7614749908447266,0.3504432678222656,0
0.7628517150878906,0.3505800247192383,0
0.7624500274658202,0.3508666992187500,0
0.7618852615356445,0.3506160736083984,0
0.7629667282104492,0.3509262084960937,0
0.7632511138916015,0.3509490966796875,0
0.7627567291259766,0.3510778427124023,0
0.7629987716674804,0.3512363433837891,0
0.7637987136840820,0.3512363433837891,0
0.7632104873657226,0.3517187118530273,0
0.7628522872924804,0.3516466140747070,0
0.7633821487426757,0.3517169952392578,0
0.7638050079345703,0.3522617340087891,0
0.7638267517089844,0.3518474578857422,0
0.7632625579833984,0.3520042419433594,0
0.7646335601806641,0.3520654678344726,0
0.7642553329467773,0.3525312423706055,0
0.7636911392211914,0.3521959304809570,0
0.7646781921386718,0.3523464202880859,0
0.7649768829345703,0.3523624420166016,0
0.7643640518188476,0.3524648666381836,0
0.7639932632446289,0.3523492813110352,0
0.7652675628662109,0.3526033401489257,0
0.7648555755615234,0.3526033401489257,0
0.7643165588378906,0.3525981903076172,0
0.7643760681152344,0.3528459548950195,0
0.7654661178588867,0.3529214859008789,0
0.7652727127075195,0.3533884048461914,0
0.7646827697753906,0.3529237747192382,0
0.7659530639648438,0.3530714035034180,0
0.7657962799072265,0.3532287597656250,0
0.7657413482666016,0.3533546447753906,0
0.7650672912597656,0.3533889770507813,0
0.7662860870361328,0.3534879684448242,0
0.7658884048461914,0.3540424346923828,0
0.7651731491088867,0.3531921386718750,0
0.7649099349975585,0.3534284591674804,0
0.7647806167602539,0.3528402328491211,0
0.7646804809570312,0.3527841567993164,0
0.7623241424560546,0.3509187698364258,0
0.7616249084472656,0.3509187698364258,0
0.7593240737915039,0.3489068984985351,0
0.7593240737915039,0.3483255386352539,0
0.7561677932739258,0.3458982467651367,0
0.7550050735473632,0.3425325393676757,0
0.7514230728149414,0.3413721084594726,0
0.7503215789794921,0.3413898468017578,0
0.7516725540161132,0.3417045593261719,0
0.7515386581420899,0.3417045593261719,0
0.7514711380004883,0.3421468734741211,0
0.7514711380004883,0.3423660278320312,0
0.7530138015747070,0.3427705764770508,0
0.7528724670410156,0.3435264587402344,0
0.7527076721191406,0.3432741165161133,0
0.7529714584350585,0.3434200286865234,0
0.7543058395385742,0.3438154220581054,0
0.7540512084960938,0.3444723129272461,0
0.7539138793945312,0.3442972183227539,0
0.7544786453247070,0.3446943283081055,0
0.7551292419433594,0.3453729629516601,0
0.7551246643066406,0.3453695297241211,0
0.7551572799682617,0.3451377868652344,0
0.7554994583129883,0.3451847076416015,0
0.7561815261840820,0.3462123870849609,0
0.7561243057250976,0.3462123870849609,0
0.7561529159545898,0.3459983825683594,0
0.7572498321533203,0.3462530136108398,0
0.7571125030517578,0.3469322204589844,0
0.7566427230834961,0.3462793350219727,0
0.7566318511962891,0.3464572906494141,0
0.7574935913085937,0.3465654373168945,0
0.7572916030883788,0.3470197677612304,0
0.7565574645996094,0.3463451385498047,0
0.7568235397338867,0.3464527130126953,0
0.7567485809326172,0.3466695785522461,0
0.7564252853393555,0.3466976165771484,0
0.7556396484375000,0.3458278656005859,0
0.7560504913330078,0.3455852508544922,0
0.7559949874877929,0.3460126876831054,0
0.7555818557739258,0.3454914093017578,0
0.7553695678710938,0.3453180313110352,0
0.7553695678710938,0.3450765609741211,0
0.7553804397583007,0.3457014083862305,0
0.7552350997924805,0.3452276229858398,0
0.7552213668823242,0.3448528289794922,0
0.7557741165161133,0.3448528289794922,0
0.7553678512573242,0.3457197189331054,0
0.7553678512573242,0.3451669692993164,0
0.7554937362670898,0.3451349258422852,0
0.7560836791992187,0.3451555252075195,0
0.7558290481567382,0.3456132888793945,0
0.7554765701293945,0.3456132888793945,0
0.7562507629394531,0.3456224441528320,0
0.7564870834350585,0.3466260910034180,0
0.7563726425170898,0.3463474273681640,0
0.7566461563110352,0.3464653015136719,0
0.7569980621337891,0.3462478637695313,0
0.7571605682373047,0.3472434997558594,0
0.7571605682373047,0.3467439651489257,0
0.7572984695434570,0.3468229293823242,0
0.7580303192138672,0.3469036102294922,0
0.7579021453857422,0.3475610733032227,0
0.7582151412963867,0.3474340438842773,0
0.7584726333618164,0.3474603652954101,0
0.7586162567138671,0.3485029220581055,0
0.7586162567138671,0.3479885101318359,0
0.7587553024291992,0.3479650497436523,0
0.7594058990478515,0.3480285644531250,0
0.7591758728027344,0.3487203598022461,0
0.7596479415893554,0.3485383987426758,0
0.7597354888916016,0.3485000610351562,0
0.7600559234619141,0.3487541198730469,0
0.7598218917846680,0.3490419387817383,0
0.7595741271972656,0.3488697052001953,0
0.7605646133422851,0.3490625381469726,0
0.7606035232543945,0.3493057250976562,0
0.7606618881225585,0.3495923995971680,0
0.7601743698120117,0.3494636535644531,0
0.7610469818115234,0.3496261596679687,0
0.7609039306640625,0.3503860473632812,0
0.7605514526367188,0.3496856689453125,0
0.7606441497802734,0.3498750686645508,0
0.7615345001220702,0.3500707626342773,0
0.7613891601562500,0.3508701324462891,0
0.7610635757446289,0.3502532958984375,0
0.7610584259033203,0.3502532958984375,0
0.7617868423461914,0.3504295349121094,0
0.7617868423461914,0.3512208938598633,0
0.7615419387817383,0.3506172180175781,0
0.7623144149780273,0.3505210876464844,0
0.7624242782592773,0.3508163452148437,0
0.7619991302490234,0.3507968902587891,0
0.7619379043579101,0.3509210586547851,0
0.7628030776977539,0.3511711120605469,0
0.7625490188598633,0.3514022827148438,0
0.7623229980468750,0.3514022827148438,0
0.7626897811889648,0.3511968612670898,0
0.7628705978393554,0.3511968612670898,0
0.7630348205566406,0.3522039413452148,0
0.7627367019653321,0.3522039413452148,0
0.7622634887695312,0.3510807037353516,0
0.7616506576538086,0.3510807037353516,0
0.7618291854858398,0.3502235412597656,0
0.7607797622680664,0.3502235412597656,0
0.7594522476196289,0.3485229492187500,0
0.7580749511718750,0.3485229492187500,0
0.7564979553222656,0.3457815170288086,0
0.7548700332641601,0.3457815170288086,0
0.7533576965332031,0.3439006805419922,0
0.7510602951049804,0.3439006805419922,0
0.7491823196411133,0.3399318695068359,0
0.7470783233642578,0.3399318695068359,0
0.7463447570800781,0.3373535156250000,0
0.7450710296630859,0.3373535156250000,0
0.7438138961791992,0.3359235763549804,0
0.7433057785034179,0.3359235763549804,0
0.7427845001220703,0.3348054885864258,0
0.7426849365234375,0.3348054885864258,0
0.7428268432617188,0.3357376098632812,0
0.7428955078125000,0.3357376098632812,0
0.7429664611816406,0.3355545043945312,0
0.7433607101440429,0.3355545043945312,0
0.7444524765014648,0.3365530014038086,0
0.7451694488525390,0.3365530014038086,0
0.7454263687133789,0.3376436233520508,0
0.7462028503417969,0.3376436233520508,0
0.7464969635009765,0.3381259918212891,0
0.7471561431884766,0.3381259918212891,0
0.7477289199829101,0.3399776458740234,0
0.7478656768798828,0.3399776458740234,0
0.7480808258056640,0.3396829605102539,0
0.7482742309570313,0.3396829605102539,0
0.7490999221801757,0.3402666091918945,0
0.7494009017944335,0.3402666091918945,0
0.7493173599243164,0.3407283782958984,0
0.7497419357299805,0.3407283782958984,0
0.7496606826782226,0.3406946182250977,0
0.7499347686767578,0.3406946182250977,0
0.7503295898437500,0.3420553207397461,0
0.7503971099853516,0.3420553207397461,0
0.7503953933715820,0.3415534973144531,0
0.7504829406738281,0.3415534973144531,0
0.7512834548950195,0.3420558929443359,0
0.7515478134155273,0.3420558929443359,0
0.7514087677001953,0.3425359725952148,0
0.7517749786376953,0.3425359725952148,0
0.7517566680908203,0.3424060821533203,0
0.7520347595214844,0.3424060821533203,0
0.7522567749023438,0.3436483383178711,0
0.7521234512329101,0.3436483383178711,0
0.7520959854125976,0.3428815841674804,0
0.7519632339477539,0.3428815841674804,0
0.7525142669677735,0.3429628372192383,0
0.7524564743041992,0.3429628372192383,0
0.7520353317260742,0.3429244995117187,0
0.7521503448486327,0.3429244995117187,0
0.7518190383911133,0.3423362731933594,0
0.7516777038574218,0.3423362731933594,0
0.7517652511596680,0.3432312011718750,0
0.7514087677001953,0.3432312011718750,0
0.7512256622314453,0.3421337127685547,0
0.7509052276611328,0.3421337127685547,0
0.7513372421264648,0.3420976638793945,0
0.7512931823730469,0.3420976638793945,0
0.7508829116821288,0.3420507431030274,0
0.7509727478027344,0.3420507431030274,0
0.7506437301635742,0.3414854049682617,0
0.7506849288940429,0.3414854049682617,0
0.7508285522460937,0.3425096511840820,0
0.7506425857543945,0.3425096511840820,0
0.7505590438842773,0.3417051315307617,0
0.7505121231079102,0.3417051315307617,0
0.7509979248046875,0.3418567657470703,0
0.7512033462524413,0.3418567657470703,0
0.7509630203247070,0.3421743392944336,0
0.7512639999389649,0.3421743392944336,0
0.7511054992675781,0.3418333053588867,0
0.7512840270996094,0.3418333053588867,0
0.7515838623046874,0.3432209014892578,0
0.7514533996582031,0.3432209014892578,0
0.7515712738037109,0.3426006317138672,0
0.7515123367309570,0.3426006317138672,0
0.7522064208984375,0.3429182052612305,0
0.7524759292602539,0.3429182052612305,0
0.7522619247436523,0.3433610916137695,0
0.7526166915893554,0.3433610916137695,0
0.7525537490844726,0.3430932998657226,0
0.7526859283447266,0.3430932998657226,0
0.7530778884887696,0.3445821762084961,0
0.7530378341674805,0.3445821762084961,0
0.7532358169555664,0.3439968109130859,0
0.7533531188964844,0.3439968109130859,0
0.7537960052490235,0.3443532943725586,0
0.7541049957275391,0.3443532943725586,0
0.7538887023925781,0.3447647094726562,0
0.7543069839477539,0.3447647094726562,0
0.7541822433471680,0.3444419860839844,0
0.7543773651123047,0.3444419860839844,0
0.7547206878662109,0.3458633422851562,0
0.7546600341796875,0.3458633422851562,0
0.7547338485717773,0.3452356338500976,0
0.7547069549560547,0.3452356338500976,0
0.7552385330200195,0.3455125808715820,0
0.7554130554199219,0.3455125808715820,0
0.7553106307983398,0.3458530426025391,0
0.7556201934814453,0.3458530426025391,0
0.7554834365844726,0.3454948425292969,0
0.7555583953857422,0.3454948425292969,0
0.7559274673461914,0.3468704223632812,0
0.7558330535888672,0.3468704223632812,0
0.7559932708740235,0.3462358474731445,0
0.7559297561645507,0.3462358474731445,0
0.7563463211059570,0.3465236663818359,0
0.7566146850585938,0.3465236663818359,0
0.7564476013183593,0.3469093322753906,0
0.7567548751831055,0.3469093322753906,0
0.7566404342651367,0.3465070724487305,0
0.7567754745483398,0.3465070724487305,0
0.7570158004760742,0.3478494644165039,0
0.7568235397338867,0.3478494644165039,0
0.7570650100708007,0.3471736907958984,0
0.7569282531738281,0.3471736907958984,0
0.7574066162109375,0.3473905563354492,0
0.7576051712036133,0.3473905563354492,0
0.7574335098266601,0.3477149963378906,0
0.7577362060546875,0.3477149963378906,0
0.7574787139892578,0.3472858428955078,0
0.7575708389282226,0.3472858428955078,0
0.7578643798828125,0.3485321044921875,0
0.7577608108520507,0.3485321044921875,0
0.7579874038696289,0.3479061126708984,0
0.7578226089477539,0.3479061126708984,0
0.7581916809082031,0.3481269836425781,0
0.7584589004516601,0.3481269836425781,0
0.7582471847534179,0.3483947753906250,0
0.7585773468017578,0.3483947753906250,0
0.7583908081054688,0.3479742050170898,0
0.7583702087402343,0.3479742050170898,0
0.7586545944213867,0.3493148803710938,0
0.7586402893066406,0.3493148803710938,0
0.7588113784790039,0.3486293792724609,0
0.7587976455688477,0.3486293792724609,0
0.7591386795043945,0.3488908767700195,0
0.7593715667724609,0.3488908767700195,0
0.7592290878295899,0.3492547988891602,0
0.7595809936523438,0.3492547988891602,0
0.7593755722045898,0.3488319396972656,0
0.7596508026123047,0.3488319396972656,0
0.7597274780273438,0.3501771926879882,0
0.7597051620483398,0.3501771926879882,0
0.7598287582397460,0.3494424819946289,0
0.7595712661743164,0.3494424819946289,0
0.7597366333007812,0.3493577957153320,0
0.7595048904418945,0.3493577957153320,0
0.7588251113891601,0.3487689971923828,0
0.7581459045410156,0.3487689971923828,0
0.7567708969116210,0.3464338302612305,0
0.7551755905151367,0.3464338302612305,0
0.7539270401000976,0.3450141906738281,0
0.7517177581787109,0.3450141906738281,0
0.7500314712524414,0.3407976150512695,0
0.7474966049194336,0.3407976150512695,0
0.7450555801391602,0.3366874694824218,0
0.7426139831542968,0.3366874694824218,0
0.7406261444091796,0.3334367752075195,0
0.7388523101806640,0.3334367752075195,0
0.7362768173217773,0.3294851303100586,0
0.7356090545654297,0.3299835205078125,0
0.7349498748779296,0.3294038772583008,0
0.7353406906127929,0.3298061370849609,0
0.7359460830688477,0.3301746368408203,0
0.7372358322143554,0.3316011428833008,0
0.7383012771606445,0.3316011428833008,0
0.7387281417846679,0.3323358535766601,0
0.7395212173461914,0.3323358535766601,0
0.7405248641967773,0.3348089218139648,0
0.7411067962646484,0.3348089218139648,0
0.7420240402221679,0.3351018905639648,0
0.7423170089721679,0.3351018905639648,0
0.7429264068603515,0.3358989715576172,0
0.7434923171997070,0.3358989715576172,0
0.7435615539550781,0.3368001937866211,0
0.7442224502563476,0.3368001937866211,0
0.7441057205200196,0.3365884780883789,0
0.7442602157592774,0.3365884780883789,0
0.7447088241577148,0.3379926681518555,0
0.7447683334350585,0.3379926681518555,0
0.7452610015869140,0.3376430511474609,0
0.7451711654663086,0.3376430511474609,0
0.7454744338989258,0.3379949569702148,0
0.7457834243774414,0.3379949569702148,0
0.7457868576049804,0.3385540008544922,0
0.7461639404296875,0.3385540008544922,0
0.7461776733398438,0.3382770538330078,0
0.7463481903076171,0.3382770538330078,0
0.7466766357421875,0.3397418975830078,0
0.7467750549316406,0.3397418975830078,0
0.7472894668579101,0.3392675399780273,0
0.7471212387084961,0.3392675399780273,0
0.7473123550415038,0.3395256042480468,0
0.7475154876708984,0.3395256042480468,0
0.7472562789916992,0.3397659301757812,0
0.7476087570190429,0.3397659301757812,0
0.7469810485839844,0.3390655517578125,0
0.7471664428710937,0.3390655517578125,0
0.7471195220947265,0.3399885177612305,0
0.7469181060791016,0.3399885177612305,0
0.7471069335937500,0.3391353607177734,0
0.7466680526733398,0.3391353607177734,0
0.7466239929199219,0.3389093399047852,0
0.7467081069946289,0.3389093399047852,0
0.7463373184204102,0.3389528274536133,0
0.7465415954589844,0.3389528274536133,0
0.7460346221923828,0.3381431579589844,0
0.7458143234252930,0.3381431579589844,0
0.7460334777832031,0.3391616821289062,0
0.7458189010620117,0.3391616821289062,0
0.7462257385253906,0.3384590148925781,0
0.7459173202514648,0.3384590148925781,0
0.7460294723510742,0.3385362625122070,0
0.7461799621582031,0.3385362625122070,0
0.7460620880126952,0.3388463973999024,0
0.7464637756347656,0.3388463973999024,0
0.7461536407470702,0.3384183883666992,0
0.7461771011352539,0.3384183883666992,0
0.7464660644531250,0.3396926879882812,0
0.7464952468872070,0.3396926879882812,0
0.7470577239990234,0.3392057418823242,0
0.7468946456909179,0.3392057418823242,0
0.7471355438232422,0.3394666671752929,0
0.7474079132080078,0.3394666671752929,0
0.7474359512329102,0.3399644851684570,0
0.7479022979736328,0.3399644851684570,0
0.7476539611816406,0.3396863937377930,0
0.7476882934570312,0.3396863937377930,0
0.7480379104614258,0.3410717010498047,0
0.7481094360351562,0.3410717010498047,0
0.7487863540649414,0.3406791687011719,0
0.7486799240112304,0.3406791687011719,0
0.7489139556884765,0.3410001754760742,0
0.7492258071899414,0.3410001754760742,0
0.7491542816162109,0.3415351867675781,0
0.7497722625732421,0.3415351867675781,0
0.7495519638061523,0.3412347793579101,0
0.7495845794677735,0.3412347793579101,0
0.7498695373535156,0.3425445556640625,0
0.7500114440917969,0.3425445556640625,0
0.7505773544311524,0.3422172546386719,0
0.7504005432128906,0.3422172546386719,0
0.7505607604980469,0.3424592971801758,0
0.7509275436401367,0.3424592971801758,0
0.7509201049804687,0.3429244995117187,0
0.7514556884765625,0.3429244995117187,0
0.7511432647705077,0.3425416946411133,0
0.7512239456176758,0.3425416946411133,0
0.7514780044555663,0.3438411712646484,0
0.7514871597290039,0.3438411712646484,0
0.7520856857299805,0.3434045791625976,0
0.7519666671752929,0.3434045791625976,0
0.7520278930664063,0.3436408996582031,0
0.7522876739501952,0.3436408996582031,0
0.7522224426269531,0.3440597534179687,0
0.7527477264404296,0.3440597534179687,0
0.7524232864379883,0.3436317443847656,0
0.7523815155029296,0.3436317443847656,0
0.7526670455932617,0.3449008941650391,0
0.7527053833007812,0.3449008941650391,0
0.7533308029174804,0.3444179534912109,0
0.7530893325805664,0.3444179534912109,0
0.7531368255615234,0.3446222305297851,0
0.7534229278564453,0.3446222305297851,0
0.7533170700073242,0.3449747085571289,0
0.7538732528686524,0.3449747085571289,0
0.7534950256347656,0.3445261001586914,0
0.7534463882446288,0.3445261001586914,0
0.7536724090576171,0.3457014083862305,0
0.7537101745605469,0.3457014083862305,0
0.7543659210205078,0.3452854156494141,0
0.7540958404541015,0.3452854156494141,0
0.7541032791137695,0.3454467773437500,0
0.7543922424316406,0.3454467773437500,0
0.7543247222900390,0.3458347320556641,0
0.7548471450805664,0.3458347320556641,0
0.7545484542846680,0.3454118728637695,0
0.7544282913208008,0.3454118728637695,0
0.7546829223632813,0.3465637207031250,0
0.7547664642333984,0.3465637207031250,0
0.7554302215576172,0.3461322784423828,0
0.7551475524902344,0.3461322784423828,0
0.7551458358764648,0.3463205337524414,0
0.7553277969360351,0.3463205337524414,0
0.7553272247314453,0.3467021942138672,0
0.7558971405029297,0.3467021942138672,0
0.7554731369018555,0.3462741851806641,0
0.7554124832153321,0.3462741851806641,0
0.7556848526000977,0.3473745346069336,0
0.7557415008544922,0.3473745346069336,0
0.7564006805419922,0.3470340728759765,0
0.7560819625854492,0.3470340728759765,0
0.7561752319335937,0.3471702575683593,0
0.7563932418823242,0.3471702575683593,0
0.7564264297485351,0.3476068496704102,0
0.7569402694702149,0.3476068496704102,0
0.7566278457641601,0.3472223281860352,0
0.7565717697143555,0.3472223281860352,0
0.7568395614624023,0.3484090805053711,0
0.7568183898925781,0.3484090805053711,0
0.7576097488403321,0.3480508804321289,0
0.7573825836181640,0.3480508804321289,0
0.7573539733886718,0.3482076644897461,0
0.7576206207275390,0.3482076644897461,0
0.7575983047485352,0.3486070632934570,0
0.7581344604492187,0.3486070632934570,0
0.7576269149780274,0.3480388641357422,0
0.7571926116943359,0.3480388641357422,0
0.7570804595947266,0.3484989166259765,0
0.7564012527465820,0.3484989166259765,0
0.7563068389892578,0.3466009140014648,0
0.7544849395751952,0.3466009140014648,0
0.7529708862304687,0.3442148208618164,0
0.7511810302734375,0.3442148208618164,0
0.7491851806640625,0.3411043167114258,0
0.7468980789184571,0.3411043167114258,0
0.7438940048217774,0.3360008239746093,0
0.7407646179199219,0.3360008239746093,0
0.7385427474975585,0.3326957702636719,0
0.7359821319580078,0.3326957702636719,0
0.7347707748413086,0.3287721633911133,0
0.7326559066772461,0.3287721633911133,0
0.7313919067382812,0.3267127990722656,0
0.7307836532592773,0.3267127990722656,0
0.7303945541381835,0.3263683319091797,0
0.7308609008789062,0.3263683319091797,0
0.7306886672973633,0.3262023925781250,0
0.7310291290283203,0.3262023925781250,0
0.7317375183105469,0.3282360076904297,0
0.7324607849121093,0.3282360076904297,0
0.7340612411499023,0.3291624069213867,0
0.7346174240112304,0.3291624069213867,0
0.7353115081787109,0.3306192398071289,0
0.7362859725952148,0.3306192398071289,0
0.7369256973266601,0.3321292877197266,0
0.7381250381469726,0.3321292877197266,0
0.7383132934570312,0.3326425552368164,0
0.7386394500732422,0.3326425552368164,0
0.7391252517700195,0.3341772079467774,0
0.7394971847534180,0.3341772079467774,0
0.7406055450439453,0.3343196868896484,0
0.7405179977416992,0.3343196868896484,0
0.7405620574951172,0.3347574234008789,0
0.7409563064575195,0.3347574234008789,0
0.7411411285400390,0.3353839874267578,0
0.7418952941894531,0.3353839874267578,0
0.7415153503417968,0.3351945877075195,0
0.7414604187011719,0.3351945877075195,0
0.7418140411376953,0.3363206863403320,0
0.7420497894287109,0.3363206863403320,0
0.7430105209350586,0.3362760543823242,0
0.7427616119384766,0.3362760543823242,0
0.7428216934204102,0.3366514205932617,0
0.7432239532470702,0.3366514205932617,0
0.7432886123657226,0.3371818542480469,0
0.7439826965332031,0.3371818542480469,0
0.7436937332153321,0.3370176315307617,0
0.7435409545898437,0.3370176315307617,0
0.7436565399169922,0.3377723693847656,0
0.7436902999877929,0.3377723693847656,0
0.7444667816162109,0.3374307632446289,0
0.7439947128295898,0.3374307632446289,0
0.7437698364257812,0.3373186111450195,0
0.7438694000244140,0.3373186111450195,0
0.7436027526855469,0.3374261856079102,0
0.7441102981567382,0.3371492385864258,0
0.7441102981567382,0.3371492385864258,0
0.7432479858398438,0.3369867324829102,0
0.7433103561401367,0.3369867324829102,0
0.7430282592773437,0.3369947433471679,0
0.7434579849243164,0.3369947433471679,0
0.7429544448852539,0.3363727569580078,0
0.7425945281982421,0.3363727569580078,0
0.7425642013549805,0.3370388031005859,0
0.7424846649169922,0.3370388031005859,0
0.7433423995971680,0.3365564346313477,0
0.7429824829101562,0.3365564346313477,0
0.7427598953247070,0.3365810394287109,0
0.7429292678833007,0.3365810394287109,0
0.7428520202636718,0.3369249343872070,0
0.7434659957885742,0.3369249343872070,0
0.7430551528930663,0.3366199493408203,0
0.7429086685180664,0.3366199493408203,0
0.7430242538452149,0.3375200271606445,0
0.7431255340576172,0.3375200271606445,0
0.7441549301147461,0.3374067306518554,0
0.7439678192138671,0.3374067306518554,0
0.7438997268676758,0.3376750946044922,0
0.7442270278930664,0.3376750946044922,0
0.7442590713500976,0.3381917953491211,0
0.7450813293457031,0.3381917953491211,0
0.7447568893432617,0.3380962371826172,0
0.7447048187255859,0.3380962371826172,0
0.7449514389038085,0.3391096115112305,0
0.7451333999633789,0.3391096115112305,0
0.7462383270263672,0.3390764236450195,0
0.7460117340087891,0.3390764236450195,0
0.7459482192993164,0.3394077301025391,0
0.7463287353515625,0.3394077301025391,0
0.7463727951049804,0.3400079727172852,0
0.7471046447753906,0.3400079727172852,0
0.7468305587768554,0.3398231506347656,0
0.7467750549316406,0.3398231506347656,0
0.7468992233276367,0.3407649993896484,0
0.7471040725708008,0.3407649993896484,0
0.7481203079223633,0.3406522750854492,0
0.7479034423828125,0.3406522750854492,0
0.7476671218872070,0.3408977508544922,0
0.7480207443237304,0.3408977508544922,0
0.7480648040771484,0.3413377761840820,0
0.7487663269042969,0.3413377761840820,0
0.7484327316284179,0.3411260604858398,0
0.7483211517333984,0.3411260604858398,0
0.7483314514160156,0.3419363021850586,0
0.7486890792846680,0.3419837951660156,0
0.7490999221801757,0.3420518875122070,0
0.7493923187255859,0.3419179916381836,0
0.7490192413330078,0.3423534393310547,0
0.7498180389404296,0.3423025131225586,0
0.7496904373168946,0.3421886444091797,0
0.7495353698730468,0.3429033279418945,0
0.7499084472656250,0.3430515289306640,0
0.7502695083618164,0.3431041717529297,0
0.7501270294189453,0.3427391052246094,0
0.7503227233886719,0.3434223175048828,0
0.7509956359863281,0.3432844161987305,0
0.7508600234985351,0.3432397842407227,0
0.7507535934448242,0.3439773559570312,0
0.7512376785278320,0.3440980911254883,0
0.7515747070312500,0.3441427230834961,0
0.7514104843139648,0.3438171386718750,0
0.7514642715454102,0.3444883346557617,0
0.7525686264038086,0.3443767547607422,0
0.7521566390991211,0.3442829132080078,0
0.7519060134887695,0.3446239471435547,0
0.7529348373413086,0.3449380874633789,0
0.7531219482421875,0.3448064804077148,0
0.7525691986083984,0.3449821472167969,0
0.7525165557861327,0.3451446533203125,0
0.7536901473999024,0.3452928543090820,0
0.7531820297241211,0.3455331802368164,0
0.7534063339233398,0.3453701019287109,0
0.7534818649291992,0.3458021163940430,0
0.7541959762573242,0.3456985473632813,0
0.7535654067993164,0.3464550018310547,0
0.7541519165039062,0.3462570190429687,0
0.7540386199951171,0.3466358184814453,0
0.7550376892089844,0.3466598510742188,0
0.7548070907592773,0.3468515396118164,0
0.7551092147827149,0.3472572326660156,0
0.7559949874877929,0.3472812652587891,0
0.7554914474487304,0.3473230361938476,0
0.7558015823364258,0.3477996826171875,0
0.7558015823364258,0.3478580474853515,0
0.7562187194824218,0.3478368759155273,0
0.7558227539062500,0.3479341506958007,0
0.7556144714355468,0.3481269836425781,0
0.7563486099243164,0.3473384857177734,0
0.7538949966430664,0.3458272933959961,0
0.7523574829101562,0.3445913314819336,0
0.7499708175659180,0.3418275833129883,0
0.7472551345825195,0.3418275833129883,0
0.7413328170776367,0.3375795364379883,0
0.7413328170776367,0.3355012893676758,0
0.7372575759887695,0.3311874389648438,0
0.7344406127929687,0.3294914245605469,0
0.7306612014770507,0.3269205093383789,0
0.7296970367431640,0.3272186279296875,0
0.7296077728271484,0.3260667800903320,0
0.7294887542724610,0.3260187149047851,0
0.7296323776245117,0.3269445419311524,0
0.7305988311767578,0.3277353286743164,0
0.7324842453002930,0.3292551040649414,0
0.7332481384277344,0.3288711547851562,0
0.7350723266601562,0.3307788848876953,0
0.7353326797485351,0.3315370559692383,0
0.7372186660766601,0.3327724456787109,0
0.7376575469970703,0.3331684112548828,0
0.7389410018920898,0.3344856262207031,0
0.7399829864501953,0.3342979431152344,0
0.7399921417236328,0.3347551345825195,0
0.7400562286376953,0.3350469589233399,0
0.7407045364379883,0.3357341766357422,0
0.7417047500610351,0.3358097076416016,0
0.7413471221923827,0.3360225677490234,0
0.7418140411376953,0.3360992431640625,0
0.7419296264648437,0.3367006301879883,0
0.7429000854492187,0.3367527008056641,0
0.7425813674926758,0.3371372222900391,0
0.7430065155029296,0.3371372222900391,0
0.7439964294433593,0.3376968383789062,0
0.7439964294433593,0.3377111434936523,0
0.7438865661621094,0.3379405975341797,0
0.7433618545532227,0.3382261276245117,0
0.7446475982666015,0.3381082534790039,0
0.7441211700439453,0.3381082534790039,0
0.7434642791748046,0.3381002426147461,0
0.7434642791748046,0.3383010864257812,0
0.7444067001342773,0.3380144119262695,0
0.7437892913818359,0.3382524490356445,0
0.7430740356445312,0.3379823684692383,0
0.7433761596679688,0.3379823684692383,0
0.7434974670410156,0.3377174377441406,0
0.7433538436889648,0.3376012802124023,0
0.7426958084106445,0.3376499176025390,0
0.7430162429809570,0.3378215789794922,0
0.7431364059448242,0.3377952575683594,0
0.7428720474243163,0.3375726699829101,0
0.7426860809326171,0.3377277374267578,0
0.7430528640747071,0.3376831054687500,0
0.7434024810791016,0.3377157211303711,0
0.7431484222412109,0.3377157211303711,0
0.7434957504272460,0.3380201339721680,0
0.7434957504272460,0.3381420135498047,0
0.7438219070434570,0.3383571624755859,0
0.7438350677490234,0.3383182525634765,0
0.7443025588989257,0.3390157699584961,0
0.7449274063110352,0.3387908935546875,0
0.7448530197143555,0.3390043258666992,0
0.7448387145996094,0.3391462326049804,0
0.7451980590820312,0.3396171569824218,0
0.7461891174316406,0.3396463394165039,0
0.7457811355590820,0.3399473190307617,0
0.7461702346801757,0.3399965286254883,0
0.7468551635742188,0.3403444290161133,0
0.7470903396606445,0.3404325485229492,0
0.7467510223388671,0.3407255172729492,0
0.7465278625488281,0.3408565521240234,0
0.7480333328247070,0.3412668228149414,0
0.7478273391723632,0.3412817001342773,0
0.7480424880981446,0.3415569305419922,0
0.7474571228027344,0.3417818069458008,0
0.7489322662353516,0.3419952392578125,0
0.7486146926879883,0.3424306869506836,0
0.7482238769531250,0.3422996520996094,0
0.7484430313110352,0.3425348281860351,0
0.7496137619018555,0.3426549911499023,0
0.7494403839111328,0.3430240631103516,0
0.7490644454956055,0.3432283401489258,0
0.7496829986572265,0.3435070037841797,0
0.7502099990844726,0.3437833786010742,0
0.7501579284667969,0.3435785293579102,0
0.7499147415161133,0.3437667846679687,0
0.7503438949584961,0.3440631866455078,0
0.7508239746093750,0.3443859100341797,0
0.7507020950317382,0.3441844940185547,0
0.7510459899902343,0.3443847656250000,0
0.7510459899902343,0.3444345474243164,0
0.7514631271362304,0.3447532653808594,0
0.7513555526733399,0.3446216583251953,0
0.7516462326049804,0.3449071884155273,0
0.7524656295776367,0.3449071884155273,0
0.7519392013549805,0.3453311920166016,0
0.7519392013549805,0.3451412200927734,0
0.7521560668945312,0.3453844070434570,0
0.7529703140258789,0.3453128814697266,0
0.7523632049560547,0.3455663681030273,0
0.7521125793457031,0.3455583572387695,0
0.7532369613647460,0.3458673477172852,0
0.7532495498657227,0.3461814880371094,0
0.7529691696166992,0.3460618972778320,0
0.7532358169555664,0.3462141036987305,0
0.7540992736816406,0.3462123870849609,0
0.7535625457763672,0.3466907501220703,0
0.7533067703247071,0.3466781616210937,0
0.7538406372070312,0.3468011856079101,0
0.7543018341064452,0.3472080230712891,0
0.7540992736816406,0.3472080230712891,0
0.7538269042968749,0.3471914291381836,0
0.7538618087768555,0.3471914291381836,0
0.7551504135131836,0.3473018646240234,0
0.7549055099487304,0.3473018646240234,0
0.7546840667724609,0.3474323272705078,0
0.7549432754516602,0.3474323272705078,0
0.7549798965454101,0.3477195739746093,0
0.7553581237792969,0.3477195739746093,0
0.7553976058959960,0.3481658935546875,0
0.7552076339721679,0.3481658935546875,0
0.7549816131591797,0.3481641769409179,0
0.7550685882568359,0.3481641769409179,0
0.7562856674194336,0.3483301162719726,0
0.7561065673828125,0.3483301162719726,0
0.7559640884399413,0.3485412597656250,0
0.7562295913696289,0.3485412597656250,0
0.7562261581420898,0.3488090515136719,0
0.7566839218139648,0.3488090515136719,0
0.7566896438598633,0.3492776870727539,0
0.7566507339477538,0.3492776870727539,0
0.7562353134155273,0.3492507934570312,0
0.7568578720092773,0.3492507934570312,0
0.7575634002685546,0.3493955612182617,0
0.7572458267211913,0.3493955612182617,0
0.7570329666137695,0.3495340347290039,0
0.7572887420654296,0.3495340347290039,0
0.7571170806884765,0.3494659423828125,0
0.7571971893310546,0.3494659423828125,0
0.7566066741943359,0.3491329193115234,0
0.7555904388427734,0.3491329193115234,0
0.7542200088500977,0.3473138809204102,0
0.7529239654541016,0.3473138809204102,0
0.7525148391723633,0.3449026107788086,0
0.7504514694213867,0.3449026107788086,0
0.7485128402709961,0.3420576095581054,0
0.7465507507324218,0.3420576095581054,0
0.7444707870483398,0.3387325286865234,0
0.7426643371582031,0.3387325286865234,0
0.7408796310424804,0.3360689163208008,0
0.7391143798828125,0.3360689163208008,0
0.7376821517944335,0.3338281631469727,0
0.7367603302001953,0.3338281631469727,0
0.7373027801513672,0.3328033447265625,0
0.7368101119995117,0.3328033447265625,0
0.7364673614501953,0.3327398300170898,0
0.7368730545043946,0.3327398300170898,0
0.7371282577514648,0.3334053039550781,0
0.7379476547241210,0.3334053039550781,0
0.7384603500366210,0.3349067687988281,0
0.7390205383300781,0.3349067687988281,0
0.7393266677856445,0.3356729507446289,0
0.7400688171386719,0.3356729507446289,0
0.7414970397949219,0.3366611480712891,0
0.7419439315795898,0.3366611480712891,0
0.7419691085815430,0.3374691009521484,0
0.7425979614257813,0.3374691009521484,0
0.7427118301391601,0.3380842208862305,0
0.7434597015380859,0.3380842208862305,0
0.7436422348022461,0.3390272140502930,0
0.7436525344848632,0.3390272140502930,0
0.7436594009399414,0.3390958786010742,0
0.7438796997070313,0.3390958786010742,0
0.7450916290283203,0.3394844055175781,0
0.7452077865600586,0.3394844055175781,0
0.7450292587280273,0.3398546218872070,0
0.7455259323120117,0.3398546218872070,0
0.7454303741455078,0.3402626037597656,0
0.7460454940795899,0.3402626037597656,0
0.7461107254028320,0.3410814285278320,0
0.7461559295654296,0.3410814285278320,0
0.7460163116455077,0.3410654067993164,0
0.7461879730224609,0.3410654067993164,0
0.7473157882690430,0.3413246154785156,0
0.7473644256591797,0.3413246154785156,0
0.7470903396606445,0.3416107177734375,0
0.7474210739135742,0.3416107177734375,0
0.7473089218139648,0.3417383193969726,0
0.7476636886596679,0.3417383193969726,0
0.7476121902465820,0.3422979354858398,0
0.7473546981811523,0.3422979354858398,0
0.7469152450561524,0.3418121337890625,0
0.7468791961669922,0.3418121337890625,0
0.7478319168090820,0.3417469024658203,0
0.7475652694702148,0.3417469024658203,0
0.7470811843872071,0.3415832519531250,0
0.7470846176147461,0.3415832519531250,0
0.7468002319335937,0.3413303375244141,0
0.7470233917236327,0.3413303375244141,0
0.7467830657958984,0.3416982650756836,0
0.7464700698852539,0.3416982650756836,0
0.7459865570068359,0.3410974502563476,0
0.7458641052246093,0.3410974502563476,0
0.7467882156372070,0.3409326553344726,0
0.7465787887573242,0.3409326553344726,0
0.7461559295654296,0.3408994674682617,0
0.7463104248046875,0.3408994674682617,0
0.7461072921752929,0.3408336639404297,0
0.7464460372924805,0.3408336639404297,0
0.7463882446289062,0.3415346145629883,0
0.7462600708007813,0.3415346145629883,0
0.7459608078002929,0.3411712646484375,0
0.7460174560546875,0.3411712646484375,0
0.7471321105957031,0.3412628173828125,0
0.7468597412109375,0.3412628173828125,0
0.7467887878417968,0.3415523529052734,0
0.7471292495727538,0.3415523529052734,0
0.7470537185668945,0.3417005538940430,0
0.7475498199462890,0.3417005538940430,0
0.7475658416748047,0.3426258087158203,0
0.7476190567016602,0.3426258087158203,0
0.7474119186401367,0.3423585891723633,0
0.7475412368774413,0.3423585891723633,0
0.7486953735351562,0.3426944732666016,0
0.7487949371337891,0.3426944732666016,0
0.7485849380493164,0.3430543899536133,0
0.7489837646484375,0.3430543899536133,0
0.7488378524780274,0.3432289123535156,0
0.7493459701538085,0.3432289123535156,0
0.7494913101196289,0.3441741943359375,0
0.7495851516723633,0.3441741943359375,0
0.7492755889892578,0.3439178466796875,0
0.7494295120239257,0.3439178466796875,0
0.7505167007446288,0.3442434310913086,0
0.7505275726318359,0.3442434310913086,0
0.7503519058227539,0.3445541381835938,0
0.7507175445556641,0.3445541381835938,0
0.7506305694580078,0.3446617126464844,0
0.7510946273803710,0.3446617126464844,0
0.7511592864990234,0.3451435089111328,0
0.7513612747192383,0.3451435089111328,0
0.7517944335937500,0.3452939987182617,0
0.7520919799804687,0.3454565048217773,0
0.7518762588500977,0.3458885192871093,0
0.7518762588500977,0.3457872390747070,0
0.7520484924316406,0.3457569122314453,0
0.7524278640747070,0.3457569122314453,0
0.7524953842163086,0.3467485427856445,0
0.7524330139160156,0.3467485427856445,0
0.7521846771240234,0.3463216781616211,0
0.7523139953613281,0.3463216781616211,0
0.7533130645751953,0.3465425491333008,0
0.7533067703247071,0.3465425491333008,0
0.7529754638671875,0.3467765808105469,0
0.7533222198486328,0.3467765808105469,0
0.7531986236572266,0.3467828750610352,0
0.7535717010498046,0.3467828750610352,0
0.7536380767822265,0.3477401733398438,0
0.7535659790039062,0.3477401733398438,0
0.7533187866210938,0.3472515106201172,0
0.7534166336059570,0.3472515106201172,0
0.7543413162231445,0.3475193023681640,0
0.7543138504028321,0.3475193023681640,0
0.7540609359741210,0.3477081298828125,0
0.7543693542480469,0.3477081298828125,0
0.7542222976684571,0.3476068496704102,0
0.7545232772827148,0.3476068496704102,0
0.7546102523803710,0.3486265182495117,0
0.7545032501220703,0.3486265182495117,0
0.7542526245117187,0.3480628967285156,0
0.7543401718139648,0.3480628967285156,0
0.7551961898803711,0.3483037948608398,0
0.7552665710449219,0.3483037948608398,0
0.7549690246582031,0.3484737396240234,0
0.7552322387695313,0.3484737396240234,0
0.7551212310791016,0.3483947753906250,0
0.7554508209228515,0.3483947753906250,0
0.7555572509765625,0.3494316101074219,0
0.7553895950317383,0.3494316101074219,0
0.7552207946777344,0.3489217758178711,0
0.7552894592285156,0.3489217758178711,0
0.7561775207519531,0.3491014480590820,0
0.7562381744384765,0.3491014480590820,0
0.7559978485107421,0.3494104385375976,0
0.7562788009643554,0.3494104385375976,0
0.7562404632568359,0.3493446350097656,0
0.7565145492553711,0.3493446350097656,0
0.7566495895385742,0.3504352569580078,0
0.7566679000854492,0.3504352569580078,0
0.7564504623413085,0.3499013900756836,0
0.7565265655517578,0.3499013900756836,0
0.7573545455932617,0.3501600265502929,0
0.7575096130371094,0.3501600265502929,0
0.7572263717651367,0.3504072189331054,0
0.7575176239013671,0.3504072189331054,0
0.7572601318359374,0.3501703262329102,0
0.7572927474975586,0.3501703262329102,0
0.7571022033691406,0.3506807327270507,0
0.7564064025878906,0.3506807327270507,0
0.7555704116821289,0.3489200592041016,0
0.7543928146362304,0.3489200592041016,0
0.7541376113891601,0.3472389221191406,0
0.7527133941650390,0.3472389221191406,0
0.7509910583496093,0.3451097488403320,0
0.7496355056762695,0.3451097488403320,0
0.7480888366699219,0.3423809051513672,0
0.7469575881958007,0.3423809051513672,0
0.7452455520629883,0.3408210754394531,0
0.7435850143432617,0.3408210754394531,0
0.7423313140869140,0.3381437301635742,0
0.7411920547485351,0.3381437301635742,0
0.7414512634277344,0.3371423721313476,0
0.7409368515014648,0.3371423721313476,0
0.7405500411987305,0.3369375228881836,0
0.7408670425415039,0.3369375228881836,0
0.7406902313232422,0.3368631362915039,0
0.7412109375000000,0.3368631362915039,0
0.7415937423706055,0.3384092330932617,0
0.7418306350708007,0.3384092330932617,0
0.7420309066772460,0.3384384155273437,0
0.7439420700073242,0.3391977310180664,0
0.7439546585083008,0.3399553298950195,0
0.7446149826049805,0.3399553298950195,0
0.7446767807006835,0.3401115417480469,0
0.7451465606689452,0.3401115417480469,0
0.7455076217651367,0.3416667938232422,0
0.7456157684326171,0.3416667938232422,0
0.7457485198974609,0.3413761138916016,0
0.7459058761596680,0.3413761138916016,0
0.7468185424804688,0.3418081283569336,0
0.7471412658691406,0.3418081283569336,0
0.7469633102416992,0.3423225402832031,0
0.7474662780761718,0.3423225402832031,0
0.7474817276000977,0.3423728942871094,0
0.7477849960327149,0.3423728942871094,0
0.7480327606201171,0.3437290191650391,0
0.7481678009033202,0.3437290191650391,0
0.7481689453125000,0.3433410644531250,0
0.7483526229858398,0.3433410644531250,0
0.7491365432739258,0.3437908172607422,0
0.7494300842285156,0.3437908172607422,0
0.7492321014404296,0.3442560195922851,0
0.7496686935424804,0.3442560195922851,0
0.7495754241943359,0.3440214157104492,0
0.7497482299804688,0.3440214157104492,0
0.7499599456787109,0.3452213287353516,0
0.7496738433837891,0.3452213287353516,0
0.7495765686035156,0.3443979263305664,0
0.7494346618652343,0.3443979263305664,0
0.7500188827514648,0.3443675994873047,0
0.7499107360839844,0.3443675994873047,0
0.7494180679321288,0.3444339752197266,0
0.7495388031005860,0.3444339752197266,0
0.7492338180541992,0.3437725067138672,0
0.7491605758666992,0.3437725067138672,0
0.7491285324096679,0.3445816040039062,0
0.7487474441528320,0.3445816040039062,0
0.7485099792480469,0.3435825347900390,0
0.7482988357543945,0.3435825347900390,0
0.7487319946289063,0.3434932708740234,0
0.7486455917358398,0.3434932708740234,0
0.7483600616455078,0.3435459136962891,0
0.7485231399536133,0.3435459136962891,0
0.7482622146606445,0.3430635452270508,0
0.7483320236206055,0.3430635452270508,0
0.7484762191772460,0.3441009521484375,0
0.7483594894409179,0.3441009521484375,0
0.7482667922973633,0.3434377670288086,0
0.7482696533203125,0.3434377670288086,0
0.7488922119140625,0.3436998367309570,0
0.7490278244018554,0.3436998367309570,0
0.7487949371337891,0.3439979553222656,0
0.7492189407348633,0.3439979553222656,0
0.7490633010864257,0.3437536239624023,0
0.7492263793945312,0.3437536239624023,0
0.7495187759399414,0.3451120376586914,0
0.7494781494140624,0.3451120376586914,0
0.7495571136474609,0.3445215225219727,0
0.7495765686035156,0.3445215225219727,0
0.7501733779907226,0.3448637008666992,0
0.7504903793334960,0.3448637008666992,0
0.7503204345703125,0.3452928543090820,0
0.7507593154907226,0.3452928543090820,0
0.7506637573242188,0.3450519561767578,0
0.7509092330932617,0.3450519561767578,0
0.7511129379272461,0.3464744567871094,0
0.7510465621948242,0.3464744567871094,0
0.7511569976806640,0.3458942413330078,0
0.7511964797973633,0.3458942413330078,0
0.7518814086914062,0.3462215423583984,0
0.7521434783935547,0.3462215423583984,0
0.7519128799438476,0.3466535568237304,0
0.7523649215698242,0.3466535568237304,0
0.7521720886230469,0.3464035034179687,0
0.7524335861206054,0.3464035034179687,0
0.7526739120483398,0.3477430343627930,0
0.7526258468627930,0.3477430343627930,0
0.7526710510253906,0.3471954345703125,0
0.7527557373046875,0.3471954345703125,0
0.7533514022827148,0.3474958419799805,0
0.7535911560058594,0.3474958419799805,0
0.7533365249633789,0.3478763580322266,0
0.7537651062011719,0.3478763580322266,0
0.7535774230957031,0.3475971221923828,0
0.7537822723388672,0.3475971221923828,0
0.7539848327636719,0.3488628387451172,0
0.7539573669433594,0.3488628387451172,0
0.7540529251098632,0.3482254028320312,0
0.7540088653564453,0.3482254028320312,0
0.7544672012329101,0.3485012054443359,0
0.7547189712524414,0.3485012054443359,0
0.7546096801757812,0.3488571166992188,0
0.7548929214477539,0.3488571166992188,0
0.7547206878662109,0.3484142303466797,0
0.7548460006713867,0.3484142303466797,0
0.7550634384155274,0.3498292922973633,0
0.7549850463867187,0.3498292922973633,0
0.7550085067749023,0.3491071701049804,0
0.7550399780273437,0.3491071701049804,0
0.7554754257202149,0.3494070053100586,0
0.7556648254394531,0.3494070053100586,0
0.7554920196533202,0.3496902465820312,0
0.7558164596557617,0.3496902465820312,0
0.7556917190551757,0.3493429183959961,0
0.7557952880859374,0.3493429183959961,0
0.7560516357421875,0.3506217956542969,0
0.7559286117553711,0.3506217956542969,0
0.7560962677001953,0.3500141143798828,0
0.7560447692871094,0.3500141143798828,0
0.7565076828002929,0.3502607345581055,0
0.7567039489746094,0.3502607345581055,0
0.7564990997314452,0.3505886077880859,0
0.7568847656250000,0.3505886077880859,0
0.7566650390624999,0.3501577377319336,0
0.7566667556762695,0.3501577377319336,0
0.7568389892578125,0.3513118743896484,0
0.7565385818481445,0.3513118743896484,0
0.7565334320068359,0.3502103805541992,0
0.7559921264648437,0.3502103805541992,0
0.7557260513305664,0.3494310379028320,0
0.7549627304077148,0.3494310379028320,0
0.7536861419677734,0.3481309890747070,0
0.7526836395263672,0.3481309890747070,0
0.7511581420898438,0.3454198837280273,0
0.7496372222900390,0.3454198837280273,0
0.7484310150146484,0.3441816329956054,0
0.7466611862182617,0.3441816329956054,0
0.7453119277954101,0.3408308029174805,0
0.7435174942016601,0.3408308029174805,0
0.7425922393798828,0.3386878967285156,0
0.7415382385253906,0.3386878967285156,0
0.7405952453613281,0.3374959945678711,0
0.7403245925903320,0.3374959945678711,0
0.7396362304687499,0.3363361358642578,0
0.7395572662353516,0.3363361358642578,0
0.7397878646850585,0.3375629425048828,0
0.7398593902587890,0.3375629425048828,0
0.7401878356933593,0.3372573852539062,0
0.7404779434204102,0.3372573852539062,0
0.7411663055419921,0.3380933761596679,0
0.7417871475219726,0.3380933761596679,0
0.7419919967651367,0.3391021728515625,0
0.7427776336669921,0.3391021728515625,0
0.7428789138793945,0.3390907287597656,0
0.7431804656982421,0.3390907287597656,0
0.7436805725097656,0.3408834457397461,0
0.7438625335693360,0.3408834457397461,0
0.7442882537841796,0.3406019210815430,0
0.7444490432739258,0.3406019210815430,0
0.7450241088867188,0.3410963058471679,0
0.7454366683959961,0.3410963058471679,0
0.7454051971435547,0.3417749404907227,0
0.7460151672363281,0.3417749404907227,0
0.7458560943603515,0.3415391921997070,0
0.7460918426513672,0.3415391921997070,0
0.7464391708374023,0.3431121826171875,0
0.7465415954589844,0.3431121826171875,0
0.7468906402587890,0.3426858901977539,0
0.7470062255859374,0.3426858901977539,0
0.7474365234375000,0.3427350997924805,0
0.7474365234375000,0.3431791305541992,0
