REDsignal,IRsignal,synced
0.9468589782714844,0.6421068191528320,0
0.9410213470458983,0.6421068191528320,0
0.9489252090454101,0.6412822723388671,0
0.9406053543090820,0.6412822723388671,0
0.9386941909790039,0.6343923568725586,0
0.9355630874633789,0.6343923568725586,0
0.9403335571289062,0.6359521865844726,0
0.9297128677368164,0.6359521865844726,0
0.9302667617797851,0.6348438262939453,0
0.9365175247192382,0.6348438262939453,0
0.9378616333007812,0.6288122177124024,0
0.9299119949340819,0.6288122177124024,0
0.9382564544677734,0.6262653350830077,0
0.9296121597290039,0.6262653350830077,0
0.9277547836303710,0.6196226119995117,0
0.9443115234374999,0.6196226119995117,0
0.9307010650634765,0.6232898712158202,0
0.9211246490478515,0.6232898712158202,0
0.9228727340698242,0.6253835678100585,0
0.9304161071777344,0.6253835678100585,0
0.9330213546752929,0.6229963302612305,0
0.9264284133911133,0.6229963302612305,0
0.9359859466552733,0.6236818313598632,0
0.9284156799316405,0.6236818313598632,0
0.9274017333984375,0.6194955825805664,0
0.9446073532104492,0.6194955825805664,0
0.9316480636596679,0.6250139236450195,0
0.9226821899414062,0.6250139236450195,0
0.9248004913330078,0.6284654617309570,0
0.9327924728393554,0.6284654617309570,0
0.9357501983642578,0.6271785736083985,0
0.9295812606811523,0.6271785736083985,0
0.9395793914794921,0.6287469863891602,0
0.9322214126586914,0.6287469863891602,0
0.9315673828125000,0.6253858566284179,0
0.9491472244262695,0.6253858566284179,0
0.9362154006958008,0.6313665390014648,0
0.9274635314941406,0.6313665390014648,0
0.9295629501342773,0.6350950241088867,0
0.9377037048339844,0.6350950241088867,0
0.9405601501464843,0.6339826583862305,0
0.9343002319335937,0.6339826583862305,0
0.9443418502807617,0.6354904174804688,0
0.9368797302246094,0.6354904174804688,0
0.9361639022827148,0.6318294525146484,0
0.9535354614257812,0.6318294525146484,0
0.9403839111328125,0.6372922897338867,0
0.9314884185791015,0.6372922897338867,0
0.9334207534790039,0.6402940750122070,0
0.9412977218627929,0.6402940750122070,0
0.9437999725341797,0.6385768890380860,0
0.9372425079345703,0.6385768890380860,0
0.9471948623657226,0.6392240524291992,0
0.9394277572631835,0.6392240524291992,0
0.9384017944335937,0.6349245071411133,0
0.9555387496948242,0.6349245071411133,0
0.9422349929809570,0.6396543502807617,0
0.9329589843749999,0.6396543502807617,0
0.9347660064697265,0.6420169830322265,0
0.9424501419067383,0.6420169830322265,0
0.9446868896484375,0.6396909713745117,0
0.9379497528076172,0.6396909713745117,0
0.9477693557739257,0.6400234222412109,0
0.9397888183593750,0.6400234222412109,0
0.9387531280517578,0.6354972839355468,0
0.9556880950927734,0.6354972839355468,0
0.9422315597534179,0.6400634765625000,0
0.9330854415893555,0.6400634765625000,0
0.9347099304199218,0.6424667358398437,0
0.9423671722412109,0.6424667358398437,0
0.9447160720825195,0.6403598785400391,0
0.9379777908325195,0.6403598785400391,0
0.9478792190551757,0.6408296585083008,0
0.9400680541992187,0.6408296585083008,0
0.9391210556030273,0.6364391326904296,0
0.9561161041259765,0.6364391326904296,0
0.9429296493530273,0.6412748336791992,0
0.9338607788085938,0.6412748336791992,0
0.9355447769165038,0.6436946868896484,0
0.9433433532714843,0.6436946868896484,0
0.9457288742065429,0.6417835235595702,0
0.9390644073486327,0.6417835235595702,0
0.9491168975830078,0.6422893524169921,0
0.9412605285644531,0.6422893524169921,0
0.9404880523681640,0.6380149841308593,0
0.9574504852294922,0.6380149841308593,0
0.9442674636840820,0.6427734374999999,0
0.9351242065429687,0.6427734374999999,0
0.9367034912109374,0.6448242187500000,0
0.9442811965942383,0.6448242187500000,0
0.9461940765380858,0.6420387268066406,0
0.9390409469604492,0.6420387268066406,0
0.9484399795532226,0.6407884597778321,0
0.9397195816040038,0.6407884597778321,0
0.9378044128417968,0.6336021423339844,0
0.9534461975097656,0.6336021423339844,0
0.9386919021606445,0.6345983505249023,0
0.9281284332275390,0.6345983505249023,0
0.9284706115722656,0.6329647064208984,0
0.9347105026245117,0.6329647064208984,0
0.9354703903198242,0.6272563934326172,0
0.9274709701538085,0.6272563934326172,0
0.9365152359008788,0.6245716094970702,0
0.9276718139648437,0.6245716094970702,0
0.9260238647460937,0.6180341720581054,0
0.9423007965087891,0.6180341720581054,0
0.9285547256469726,0.6215183258056640,0
0.9192386627197265,0.6215183258056640,0
0.9206462860107422,0.6231502532958985,0
0.9283618927001953,0.6231502532958985,0
0.9304801940917968,0.6211967468261719,0
0.9237728118896484,0.6211967468261719,0
0.9338933944702148,0.6216888427734375,0
0.9262121200561523,0.6216888427734375,0
0.9254997253417968,0.6178087234497071,0
0.9425468444824219,0.6178087234497071,0
0.9296035766601562,0.6232446670532227,0
0.9209215164184570,0.6232446670532227,0
0.9228572845458984,0.6262224197387695,0
0.9309001922607422,0.6262224197387695,0
0.9335443496704101,0.6255798339843750,0
0.9272518157958984,0.6255798339843750,0
0.9378267288208008,0.6270006179809570,0
0.9305076599121094,0.6270006179809570,0
0.9300647735595703,0.6238677978515624,0
0.9281879425048828,0.6238677978515624,0
0.9345394134521484,0.6298370361328125,0
0.9260805130004882,0.6298370361328125,0
0.9281604766845702,0.6332960128784180,0
0.9364099502563477,0.6332960128784180,0
0.9388973236083984,0.6327632904052735,0
0.9325160980224609,0.6327632904052735,0
0.9431510925292969,0.6342132568359374,0
0.9356077194213867,0.6342132568359374,0
0.9329921722412109,0.6308280944824218,0
0.9311107635498046,0.6350509643554687,0
0.9323009490966796,0.6498510360717773,0
0.9323009490966796,0.6389888763427735,0
0.9402786254882812,0.6259351730346679,0
0.9425113677978515,0.6377826690673828,0
0.9359109878540038,0.6377826690673828,0
0.9462512969970702,0.6339735031127930,0
0.9416610717773437,0.6460630416870117,0
0.9282079696655273,0.6460630416870117,0
0.9352918624877929,0.6380338668823242,0
0.9331552505493164,0.6380338668823242,0
0.9451629638671875,0.6331192016601562,0
0.9478031158447265,0.6331192016601562,0
0.9417142868041992,0.6394952774047852,0
0.9382049560546875,0.6394952774047852,0
0.9386764526367187,0.6327850341796875,0
0.9553287506103515,0.6327850341796875,0
0.9427030563354492,0.6472927093505859,0
0.9291252136230468,0.6472927093505859,0
0.9361301422119140,0.6390111923217773,0
0.9341211318969727,0.6390111923217773,0
0.9461700439453125,0.6340553283691406,0
0.9486917495727538,0.6340553283691406,0
0.9425851821899414,0.6405281066894531,0
0.9390752792358398,0.6405281066894531,0
0.9395433425903320,0.6338155746459960,0
0.9561979293823242,0.6338155746459960,0
0.9436157226562499,0.6484474182128906,0
0.9300853729248046,0.6484474182128906,0
0.9371389389038085,0.6403032302856445,0
0.9350326538085937,0.6403032302856445,0
0.9471204757690429,0.6353633880615234,0
0.9495958328247069,0.6353633880615234,0
0.9435848236083983,0.6418567657470703,0
0.9401252746582031,0.6418567657470703,0
0.9404531478881836,0.6352312088012695,0
0.9571701049804687,0.6352312088012695,0
0.9445146560668944,0.6498521804809571,0
0.9310329437255859,0.6498521804809571,0
0.9381151199340820,0.6417154312133789,0
0.9441118240356445,0.6417154312133789,0
0.9479106903076171,0.6367801666259766,0
0.9503757476806640,0.6367801666259766,0
0.9443029403686523,0.6429862976074219,0
0.9407609939575194,0.6429862976074219,0
0.9409807205200195,0.6357919692993164,0
0.9573778152465819,0.6357919692993164,0
0.9442674636840820,0.6490121841430664,0
0.9300676345825195,0.6490121841430664,0
0.9362960815429687,0.6384881973266602,0
0.9330425262451172,0.6384881973266602,0
0.9437662124633789,0.6299211502075195,0
0.9448184967041016,0.6299211502075195,0
0.9373598098754883,0.6323329925537109,0
0.9379096984863281,0.6323329925537109,0
0.9311800003051758,0.6215394973754883,0
0.9463388442993164,0.6215394973754883,0
0.9325160980224609,0.6326339721679687,0
0.9178539276123047,0.6326339721679687,0
0.9238677978515625,0.6220172882080078,0
0.9292659759521484,0.6220172882080078,0
0.9325613021850585,0.6154163360595702,0
0.9345514297485351,0.6154163360595702,0
0.9283418655395508,0.6211286544799804,0
0.9246316909790039,0.6211286544799804,0
0.9252256393432616,0.6142416000366211,0
0.9339717864990233,0.6142416000366211,0
0.9293123245239258,0.6289077758789062,0
0.9158111572265625,0.6289077758789062,0
0.9230237960815429,0.6211481094360352,0
0.9292385101318359,0.6211481094360352,0
0.9333057403564453,0.6166883468627929,0
0.9360185623168945,0.6166883468627929,0
0.9303228378295898,0.6238826751708985,0
0.9271436691284179,0.6238826751708985,0
0.9279258728027343,0.6182092666625977,0
0.9449335098266601,0.6182092666625977,0
0.9327833175659179,0.6338602066040039,0
0.9195734024047851,0.6338602066040039,0
0.9270509719848632,0.6268495559692383,0
0.9254837036132812,0.6268495559692383,0
0.9379337310791015,0.6230043411254883,0
0.9407964706420898,0.6230043411254883,0
0.9353118896484375,0.6308103561401367,0
0.9322757720947266,0.6308103561401367,0
0.9332696914672851,0.6254310607910156,0
0.9504592895507812,0.6254310607910156,0
0.9381832122802733,0.6412239074707031,0
0.9251083374023437,0.6412239074707031,0
0.9325939178466797,0.6341257095336914,0
0.9307811737060546,0.6341257095336914,0
0.9431585311889648,0.6299749374389648,0
0.9459497451782226,0.6299749374389648,0
0.9401212692260742,0.6372333526611328,0
0.9367944717407226,0.6372333526611328,0
0.9375537872314452,0.6310804367065429,0
0.9543794631958007,0.6310804367065429,0
0.9418561935424804,0.6459096908569336,0
0.9283933639526367,0.6459096908569336,0
0.9354955673217773,0.6378095626831054,0
0.9333349227905273,0.6378095626831054,0
0.9454742431640625,0.6327976226806641,0
0.9479106903076171,0.6327976226806641,0
0.9418212890625000,0.6393001556396484,0
0.9382827758789062,0.6393001556396484,0
0.9388212203979491,0.6326002120971680,0
0.9555713653564453,0.6326002120971680,0
0.9427860260009765,0.6471113204956055,0
0.9292722702026367,0.6471113204956055,0
0.9363670349121094,0.6388269424438476,0
0.9341182708740234,0.6388269424438476,0
0.9462965011596679,0.6337755203247070,0
0.9487661361694335,0.6337755203247070,0
0.9427551269531249,0.6403112411499023,0
0.9393138885498047,0.6403112411499023,0
0.9398574829101562,0.6336822509765625,0
0.9564571380615234,0.6336822509765625,0
0.9437564849853515,0.6481939315795898,0
0.9302455902099609,0.6481939315795898,0
0.9372940063476562,0.6400257110595703,0
0.9350927352905273,0.6400257110595703,0
0.9471754074096679,0.6350269317626953,0
0.9496433258056640,0.6350269317626953,0
0.9435853958129883,0.6415769577026367,0
0.9400468826293945,0.6415769577026367,0
0.9405069351196289,0.6350063323974610,0
0.9572925567626953,0.6350063323974610,0
0.9445919036865233,0.6495718002319336,0
0.9310798645019531,0.6495718002319336,0
0.9381088256835937,0.6414854049682617,0
0.9360179901123047,0.6414854049682617,0
0.9481355667114257,0.6365192413330077,0
0.9505090713500977,0.6365192413330077,0
0.9445152282714844,0.6431196212768554,0
0.9409955978393554,0.6431196212768554,0
0.9414722442626953,0.6363470077514648,0
0.9581594467163086,0.6363470077514648,0
0.9453071594238280,0.6505084991455078,0
0.9315141677856444,0.6505084991455078,0
0.9382581710815430,0.6412828445434570,0
0.9355859756469727,0.6412828445434570,0
0.9468921661376952,0.6343311309814453,0
0.9482419967651367,0.6343311309814453,0
0.9411718368530273,0.6375297546386719,0
0.9361507415771484,0.6375297546386719,0
0.9352088928222656,0.6269187927246094,0
0.9505971908569335,0.6269187927246094,0
0.9363023757934570,0.6371852874755859,0
0.9211996078491210,0.6371852874755859,0
0.9268610000610351,0.6253629684448242,0
0.9234741210937499,0.6253629684448242,0
0.9346384048461913,0.6174911499023438,0
0.9361249923706054,0.6174911499023438,0
0.9295120239257812,0.6221260070800781,0
0.9255151748657227,0.6221260070800781,0
0.9255769729614257,0.6144716262817382,0
0.9422567367553710,0.6144716262817382,0
0.9293455123901366,0.6285266876220703,0
0.9156595230102539,0.6285266876220703,0
0.9227972030639648,0.6204597473144531,0
0.9208471298217773,0.6204597473144531,0
0.9330671310424804,0.6157917022705078,0
0.9355819702148437,0.6157917022705078,0
0.9297935485839843,0.6227371215820312,0
0.9265691757202148,0.6227371215820312,0
0.9273674011230468,0.6168806076049804,0
0.9446720123291015,0.6168806076049804,0
0.9321830749511718,0.6322076797485351,0
0.9189279556274413,0.6322076797485351,0
0.9262470245361327,0.6251300811767578,0
0.9246694564819335,0.6251300811767578,0
0.9371503829956054,0.6212007522583007,0
0.9397607803344726,0.6212007522583007,0
0.9343357086181641,0.6287733078002929,0
0.9312280654907226,0.6287733078002929,0
0.9320692062377929,0.6234426498413086,0
0.9496095657348632,0.6234426498413086,0
0.9371566772460938,0.6391748428344727,0
0.9240709304809570,0.6391748428344727,0
0.9315078735351562,0.6324062347412109,0
0.9299440383911133,0.6324062347412109,0
0.9424421310424804,0.6285924911499023,0
0.9450845718383789,0.6285924911499023,0
0.9393911361694336,0.6359859466552734,0
0.9362428665161132,0.6359859466552734,0
0.9368837356567382,0.6300807952880859,0
0.9542495727539062,0.6300807952880859,0
0.9414436340332031,0.6450593948364257,0
0.9281450271606445,0.6450593948364257,0
0.9352838516235351,0.6374427795410156,0
0.9334299087524414,0.6374427795410156,0
0.9454553604125976,0.6326202392578125,0
0.9477441787719726,0.6326202392578125,0
0.9418029785156250,0.6391405105590821,0
0.9382530212402344,0.6391405105590821,0
0.9386495590209960,0.6324943542480469,0
0.9558214187622069,0.6324943542480469,0
0.9428266525268554,0.6468235015869140,0
0.9291692733764648,0.6468235015869140,0
0.9361049652099609,0.6387519836425781,0
0.9340747833251952,0.6387519836425781,0
0.9460453033447265,0.6335992813110352,0
0.9481859207153320,0.6335992813110352,0
0.9423042297363281,0.6398649215698242,0
0.9387548446655273,0.6398649215698242,0
0.9390312194824219,0.6332513809204101,0
0.9562019348144530,0.6332513809204101,0
0.9431179046630859,0.6475410461425781,0
0.9294702529907226,0.6475410461425781,0
0.9365129470825195,0.6395198822021484,0
0.9345571517944335,0.6395198822021484,0
0.9465494155883789,0.6345302581787109,0
0.9486648559570312,0.6345302581787109,0
0.9428501129150391,0.6410688400268555,0
0.9393287658691406,0.6410688400268555,0
0.9397350311279297,0.6344003677368164,0
0.9569143295288085,0.6344003677368164,0
0.9440460205078125,0.6489612579345703,0
0.9304836273193359,0.6489612579345703,0
0.9374845504760742,0.6411048889160156,0
0.9355218887329101,0.6411048889160156,0
0.9475685119628906,0.6361404418945312,0
0.9497051239013672,0.6361404418945312,0
0.9438709259033202,0.6425914764404297,0
0.9403507232666015,0.6425914764404297,0
0.9407913208007812,0.6360208511352539,0
0.9580392837524414,0.6360208511352539,0
0.9449649810791015,0.6505800247192383,0
0.9314592361450195,0.6505800247192383,0
0.9385494232177733,0.6426750183105469,0
0.9366010665893554,0.6426750183105469,0
0.9487306594848632,0.6373952865600586,0
0.9507322311401367,0.6373952865600586,0
0.9445472717285156,0.6429977416992188,0
0.9405836105346679,0.6429977416992188,0
0.9402992248535156,0.6346698760986328,0
0.9567358016967773,0.6346698760986328,0
0.9427007675170898,0.6461351394653320,0
0.9278480529785156,0.6461351394653320,0
0.9335346221923828,0.6344203948974609,0
0.9300058364868163,0.6344203948974609,0
0.9406517028808593,0.6252176284790039,0
0.9412857055664062,0.6252176284790039,0
0.9338991165161132,0.6277645111083984,0
0.9290616989135742,0.6277645111083984,0
0.9283012390136718,0.6181222915649414,0
0.9446039199829102,0.6181222915649414,0
0.9308795928955078,0.6304733276367187,0
0.9166374206542969,0.6304733276367187,0
0.9233179092407227,0.6213357925415038,0
0.9210451126098632,0.6213357925415038,0
0.9329315185546875,0.6157539367675781,0
0.9350337982177734,0.6157539367675781,0
0.9291194915771483,0.6220121383666992,0
0.9256977081298827,0.6220121383666992,0
0.9261772155761718,0.6156646728515625,0
0.9434572219848633,0.6156646728515625,0
0.9307016372680663,0.6305940628051757,0
0.9174098968505859,0.6305940628051757,0
0.9246654510498047,0.6232515335083008,0
0.9229248046874999,0.6232515335083008,0
0.9353090286254883,0.6191522598266601,0
0.9378038406372070,0.6191522598266601,0
0.9322471618652344,0.6265451431274414,0
0.9292327880859375,0.6265451431274414,0
0.9299863815307616,0.6212247848510742,0
0.9477842330932617,0.6212247848510742,0
0.9353542327880859,0.6369901657104492,0
0.9223897933959960,0.6369901657104492,0
0.9299119949340819,0.6304716110229492,0
0.9285730361938476,0.6304716110229492,0
0.9412347793579101,0.6269165039062500,0
0.9437959671020507,0.6269165039062500,0
0.9384510040283203,0.6346109390258788,0
0.9354887008666992,0.6346109390258788,0
0.9362514495849609,0.6291189193725586,0
0.9538043975830077,0.6291189193725586,0
0.9411569595336914,0.6443807601928710,0
0.9278108596801757,0.6443807601928710,0
0.9351591110229491,0.6371858596801757,0
0.9334270477294921,0.6371858596801757,0
0.9456247329711913,0.6327381134033203,0
0.9344163894653320,0.6515853881835937,0
0.9440734863281249,0.6275985717773437,0
0.9371389389038085,0.6395433425903320,0
0.9404554367065430,0.6399433135986328,0
0.9436094284057617,0.6474855422973632,0
0.9371080398559570,0.6395078659057617,0
0.9471519470214843,0.6293088912963867,0
0.9492256164550781,0.6344421386718749,0
0.9398059844970703,0.6406785964965820,0
0.9451206207275390,0.6405750274658203,0
0.9493858337402343,0.6407283782958985,0
0.9442239761352539,0.6370668411254883,0
0.9355808258056640,0.6372247695922851,0
0.9455629348754883,0.6413354873657227,0
0.9447555541992188,0.6491495132446289,0
0.9411729812622069,0.6376247406005859,0
0.9442079544067382,0.6384006500244140,0
0.9503511428833007,0.6362325668334960,0
0.9369054794311523,0.6437644958496094,0
0.9462976455688477,0.6426429748535156,0
0.9412490844726562,0.6360380172729492,0
0.9454645156860351,0.6504959106445313,0
0.9418544769287109,0.6463954925537109,0
0.9369249343872070,0.6425817489624023,0
0.9511459350585937,0.6376567840576172,0
0.9376676559448242,0.6452316284179688,0
0.9471588134765625,0.6320898056030273,0
0.9592014312744140,0.6372465133666992,0
0.9513559341430664,0.6437576293945312,0
0.9420701980590820,0.6386186599731445,0
0.9386878967285156,0.6461774826049804,0
0.9470684051513671,0.6336610794067382,0
0.9345016479492188,0.6504398345947265,0
0.9412485122680664,0.6224378585815430,0
0.9328474044799804,0.6343614578247070,0
0.9330139160156250,0.6308006286621094,0
0.9361993789672851,0.6365472793579101,0
0.9273508071899413,0.6256570816040039,0
0.9357032775878906,0.6135560989379882,0
0.9373872756958007,0.6186006546020507,0
0.9273445129394531,0.6239141464233399,0
0.9327518463134765,0.6235078811645508,0
0.9366594314575195,0.6235084533691406,0
0.9316223144531249,0.6199831008911133,0
0.9253549575805664,0.6233951568603515,0
0.9314558029174804,0.6207790374755859,0
0.9380979537963867,0.6189302444458008,0
0.9325189590454102,0.6260478973388671,0
0.9347843170166015,0.6145500183105469,0
0.9397184371948242,0.6235485076904297,0
0.9319353103637695,0.6277833938598633,0
0.9490728378295898,0.6248966217041015,0
0.9295995712280273,0.6292167663574219,0
0.9406356811523438,0.6256570816040039,0
0.9298490524291991,0.6450811386108398,0
0.9405624389648437,0.6221975326538086,0
0.9405624389648437,0.6340490341186523,0
0.9378873825073242,0.6356346130371093,0
0.9410224914550781,0.6326992034912109,0
0.9352712631225586,0.6368288040161133,0
0.9336433410644531,0.6368288040161133,0
0.9484199523925780,0.6326145172119141,0
0.9347654342651367,0.6406814575195312,0
0.9447813034057617,0.6397195816040039,0
0.9398036956787109,0.6397195816040039,0
0.9441747665405273,0.6369089126586914,0
0.9308103561401366,0.6480903625488281,0
0.9358366012573242,0.6401224136352539,0
0.9439161300659179,0.6409235000610352,0
0.9365615844726562,0.6537700653076172,0
0.9444477081298828,0.6428426742553711,0
0.9391508102416992,0.6413280487060546,0
0.9409818649291992,0.6346698760986328,0
0.9449718475341796,0.6490201950073242,0
0.9411535263061523,0.6490201950073242,0
0.9442611694335937,0.6408033370971680,0
0.9442611694335937,0.6415649414062500,0
0.9367967605590820,0.6434091567993164,0
0.9444345474243163,0.6374101638793945,0
0.9413331985473632,0.6527538299560547,0
0.9413331985473632,0.6353370666503906,0
0.9453947067260742,0.6498584747314453,0
0.9416622161865233,0.6457242965698242,0
0.9449832916259765,0.6389322280883789,0
0.9362468719482422,0.6425502777099609,0
0.9455846786499023,0.6446290969848633,0
0.9453952789306640,0.6433073043823242,0
0.9424152374267578,0.6367115020751953,0
0.9513696670532226,0.6392480850219726,0
0.9425680160522460,0.6471302032470703,0
0.9425680160522460,0.6393379211425781,0
0.9460790634155273,0.6439870834350586,0
0.9498676300048827,0.6331535339355469,0
0.9464309692382812,0.6401344299316406,0
0.9429141998291015,0.6447458267211914,0
0.9602296829223632,0.6381671905517577,0
0.9523956298828125,0.6450342178344727,0
0.9436763763427733,0.6406980514526367,0
0.9409595489501953,0.6406980514526367,0
0.9376522064208984,0.6446388244628906,0
0.9504352569580078,0.6383646011352538,0
0.9458421707153319,0.6431482315063476,0
0.9471622467041015,0.6299291610717773,0
0.9487655639648437,0.6346452713012695,0
0.9394495010375976,0.6389865875244141,0
0.9374507904052733,0.6312961578369141,0
0.9335964202880859,0.6377443313598633,0
0.9409652709960937,0.6198274612426757,0
0.9421903610229492,0.6248800277709960,0
0.9308933258056640,0.6285810470581055,0
0.9364871978759766,0.6274051666259766,0
0.9390523910522460,0.6263717651367188,0
0.9338184356689453,0.6263717651367188,0
0.9462547302246094,0.6213701248168945,0
0.9268896102905273,0.6250059127807617,0
0.9367927551269530,0.6199974060058594,0
0.9254962921142578,0.6388469696044922,0
0.9355979919433594,0.6151525497436523,0
0.9290508270263671,0.6269514083862304,0
0.9322408676147460,0.6280769348144531,0
0.9354034423828125,0.6361936569213867,0
0.9297334671020507,0.6290925979614258,0
0.9360849380493164,0.6290925979614258,0
0.9297323226928711,0.6448402404785156,0
0.9297323226928711,0.6339889526367187,0
0.9406700134277344,0.6338567733764648,0
0.9361049652099609,0.6455715179443359,0
0.9411993026733398,0.6440855026245117,0
0.9377792358398437,0.6440855026245117,0
0.9421503067016601,0.6371114730834960,0
0.9421503067016601,0.6385442733764648,0
0.9357107162475585,0.6417057037353515,0
0.9436798095703125,0.6360443115234374,0
0.9411460876464843,0.6520986557006836,0
0.9579505920410156,0.6346160888671875,0
0.9319610595703125,0.6495380401611328,0
0.9415122985839843,0.6376241683959961,0
0.9451526641845702,0.6423849105834961,0
0.9490882873535156,0.6423849105834961,0
0.9455394744873047,0.6445753097534179,0
0.9453781127929687,0.6430452346801757,0
0.9422647476196289,0.6363012313842773,0
0.9509313583374023,0.6387102127075195,0
0.9326082229614258,0.6507413864135742,0
0.9395788192749023,0.6422573089599609,0
0.9454776763916015,0.6394409179687500,0
0.9379039764404297,0.6558757781982422,0
0.9456876754760741,0.6450828552246094,0
0.9407283782958984,0.6433708190917968,0
0.9423849105834960,0.6367132186889648,0
0.9325979232788085,0.6510692596435547,0
0.9421422958374023,0.6427236557006836,0
0.9453866958618163,0.6434669494628906,0
0.9378576278686523,0.6456161499023437,0
0.9454290390014648,0.6456161499023437,0
0.9423906326293945,0.6547594070434570,0
0.9423906326293945,0.6372854232788085,0
0.9589490890502930,0.6441524505615234,0
0.9462947845458984,0.6405755996704101,0
0.9462947845458984,0.6519241333007812,0
0.9457529067993163,0.6408931732177734,0
0.9457529067993163,0.6445564270019531,0
0.9368110656738281,0.6386220932006835,0
0.9383388519287109,0.6575202941894531,0
0.9383388519287109,0.6467296600341796,0
0.9482826232910155,0.6450719833374023,0
0.9414407730102539,0.6450719833374023,0
0.9518955230712890,0.6455102920532226,0
0.9440288543701172,0.6455102920532226,0
0.9433565139770508,0.6412307739257812,0
0.9603029251098633,0.6412307739257812,0
0.9468338012695312,0.6458885192871093,0
0.9377798080444335,0.6458885192871093,0
0.9393304824829101,0.6476217269897461,0
0.9470043182373047,0.6476217269897461,0
0.9487501144409179,0.6449953079223633,0
0.9413852691650391,0.6449953079223633,0
0.9510560989379883,0.6436878204345703,0
0.9423282623291015,0.6436878204345703,0
0.9407506942749023,0.6369552612304688,0
0.9565841674804687,0.6369552612304688,0
0.9420003890991211,0.6385328292846679,0
0.9316474914550781,0.6385328292846679,0
0.9321041107177734,0.6377162933349609,0
0.9387800216674804,0.6377162933349609,0
0.9399204254150391,0.6331111907958984,0
0.9320463180541991,0.6331111907958984,0
0.9414024353027344,0.6310752868652344,0
0.9326934814453125,0.6310752868652344,0
0.9312847137451171,0.6251735687255859,0
0.9477779388427734,0.6251735687255859,0
0.9340467453002930,0.6290325164794922,0
0.9248228073120117,0.6290325164794922,0
0.9265405654907226,0.6312005996704101,0
0.9344507217407226,0.6312005996704101,0
0.9368385314941405,0.6297037124633789,0
0.9303251266479492,0.6297037124633789,0
0.9408136367797851,0.6306152343750000,0
0.9363435745239257,0.6306152343750000,0
0.9327266693115234,0.6270378112792968,0
0.9501411437988281,0.6270378112792968,0
0.9369930267333983,0.6327638626098633,0
0.9281644821166992,0.6327638626098633,0
0.9302621841430664,0.6360877990722656,0
0.9383640289306641,0.6360877990722656,0
0.9409383773803710,0.6353942871093750,0
0.9345851898193359,0.6353942871093750,0
0.9451389312744141,0.6369615554809570,0
0.9376407623291015,0.6369615554809570,0
0.9371738433837891,0.6337303161621094,0
0.9544956207275390,0.6337303161621094,0
0.9414190292358398,0.6395318984985351,0
0.9326374053955078,0.6395318984985351,0
0.9345932006835938,0.6426795959472656,0
0.9425943374633788,0.6426795959472656,0
0.9450651168823242,0.6414619445800781,0
0.9385459899902343,0.6414619445800781,0
0.9488496780395508,0.6423185348510742,0
0.9411437988281249,0.6423185348510742,0
0.9403535842895507,0.6383085250854492,0
0.9575466156005858,0.6383085250854492,0
0.9442365646362304,0.6432832717895508,0
0.9352289199829101,0.6432832717895508,0
0.9369106292724609,0.6456029891967773,0
0.9447017669677734,0.6456029891967773,0
0.9469047546386719,0.6436220169067383,0
0.9400320053100586,0.6436220169067383,0
0.9500204086303711,0.6439069747924805,0
0.9421365737915038,0.6439069747924805,0
0.9412279129028320,0.6394134521484375,0
0.9581634521484375,0.6394134521484375,0
0.9447406768798827,0.6439744949340820,0
0.9354703903198242,0.6439744949340820,0
0.9370977401733398,0.6461603164672851,0
0.9449003219604492,0.6461603164672851,0
0.9470746994018554,0.6440597534179687,0
0.9402854919433593,0.6440597534179687,0
0.9502378463745117,0.6443000793457031,0
0.9423282623291015,0.6443000793457031,0
0.9413967132568359,0.6396869659423828,0
0.9582778930664062,0.6396869659423828,0
0.9447029113769531,0.6441816329956055,0
0.9354675292968749,0.6441816329956055,0
0.9369655609130859,0.6463405609130859,0
0.9445890426635741,0.6463405609130859,0
0.9466993331909179,0.6441226959228515,0
0.9399501800537109,0.6441226959228515,0
0.9510360717773437,0.6452379226684570,0
0.9430229187011718,0.6452379226684570,0
0.9422922134399414,0.6407524108886719,0
0.9592317581176757,0.6407524108886719,0
0.9458559036254882,0.6455297470092773,0
0.9367298126220702,0.6455297470092773,0
0.9384126663208008,0.6478511810302734,0
0.9460796356201171,0.6478511810302734,0
0.9484365463256835,0.6459079742431640,0
0.9417434692382812,0.6459079742431640,0
0.9515098571777343,0.6463302612304688,0
0.9438199996948242,0.6463302612304688,0
0.9405504226684570,0.6457683563232421,0
0.9464698791503906,0.6430400848388672,0
0.9373723983764648,0.6594400405883789,0
0.9390861511230468,0.6489028930664062,0
0.9490711212158203,0.6464653015136719,0
0.9422349929809570,0.6464653015136719,0
0.9516729354858398,0.6459211349487305,0
0.9435218811035155,0.6459211349487305,0
0.9421365737915038,0.6400159835815430,0
0.9584987640380859,0.6400159835815430,0
0.9445764541625976,0.6427711486816406,0
0.9346492767333984,0.6427711486816406,0
0.9352346420288086,0.6424106597900391,0
0.9418132781982421,0.6424106597900391,0
0.9433376312255859,0.6375474929809570,0
0.9356523513793945,0.6375474929809570,0
0.9443452835083007,0.6354331970214844,0
0.9358028411865233,0.6354331970214844,0
0.9341039657592773,0.6290330886840820,0
0.9504484176635741,0.6290330886840820,0
0.9367292404174804,0.6324285507202149,0
0.9272106170654296,0.6324285507202149,0
0.9287235260009765,0.6343025207519531,0
0.9362995147705078,0.6343025207519531,0
0.9388360977172852,0.6321081161499024,0
0.9323141098022460,0.6321081161499024,0
0.9419540405273437,0.6328033447265625,0
0.9344203948974609,0.6328033447265625,0
0.9338018417358398,0.6289363861083984,0
0.9510864257812499,0.6289363861083984,0
0.9382123947143555,0.6346395492553710,0
0.9295429229736327,0.6346395492553710,0
0.9315673828125000,0.6382438659667968,0
0.9396898269653320,0.6382438659667968,0
0.9426212310791016,0.6371715545654296,0
0.9364534378051758,0.6371715545654296,0
0.9463336944580077,0.6387828826904297,0
0.9391279220581055,0.6387828826904297,0
0.9384841918945312,0.6353914260864257,0
0.9558225631713867,0.6353914260864257,0
0.9428741455078125,0.6411855697631835,0
0.9340805053710937,0.6411855697631835,0
0.9362051010131835,0.6445896148681640,0
0.9442440032958984,0.6445896148681640,0
0.9470232009887695,0.6430549621582031,0
0.9406528472900391,0.6430549621582031,0
0.9503477096557617,0.6441427230834961,0
0.9429416656494141,0.6441427230834961,0
0.9421113967895507,0.6400096893310546,0
0.9592277526855468,0.6400096893310546,0
0.9462656021118163,0.6452161788940429,0
0.9372316360473633,0.6452161788940429,0
0.9390489578247070,0.6479799270629882,0
0.9468320846557616,0.6479799270629882,0
0.9494665145874023,0.6456773757934570,0
0.9428718566894531,0.6456773757934570,0
0.9522525787353515,0.6461820602416992,0
0.9446897506713867,0.6461820602416992,0
0.9436780929565429,0.6414957046508789,0
0.9606307983398437,0.6414957046508789,0
0.9473739624023437,0.6461471557617188,0
0.9382238388061523,0.6461471557617188,0
0.9399381637573242,0.6486694335937500,0
0.9476045608520507,0.6486694335937500,0
0.9501640319824218,0.6461929321289063,0
0.9435602188110351,0.6461929321289063,0
0.9528362274169921,0.6465362548828125,0
0.9453517913818359,0.6465362548828125,0
0.9441959381103515,0.6418905258178711,0
0.9611801147460937,0.6418905258178711,0
0.9479541778564453,0.6465814590454101,0
0.9387067794799804,0.6465814590454101,0
0.9405006408691405,0.6491077423095702,0
0.9480348587036133,0.6491077423095702,0
0.9506618499755859,0.6466650009155274,0
0.9440757751464843,0.6466650009155274,0
0.9532236099243163,0.6470655441284180,0
0.9456613540649413,0.6470655441284180,0
0.9444385528564453,0.6425176620483398,0
0.9614931106567383,0.6425176620483398,0
0.9482219696044921,0.6472389221191406,0
0.9388595581054687,0.6472389221191406,0
0.9406940460205078,0.6497720718383789,0
0.9483467102050781,0.6497720718383789,0
0.9510566711425781,0.6474763870239257,0
0.9445604324340819,0.6474763870239257,0
0.9536785125732421,0.6480720520019531,0
0.9461849212646484,0.6480720520019531,0
0.9451641082763671,0.6435527801513672,0
0.9622718811035156,0.6435527801513672,0
0.9491140365600585,0.6483226776123047,0
0.9398191452026367,0.6483226776123047,0
0.9415082931518555,0.6507041931152343,0
0.9490058898925781,0.6507041931152343,0
0.9514720916748046,0.6476743698120117,0
0.9446308135986328,0.6476743698120117,0
0.9532361984252929,0.6469099044799804,0
0.9452671051025390,0.6469099044799804,0
0.9434543609619140,0.6405630111694336,0
0.9597158432006836,0.6405630111694336,0
0.9458272933959960,0.6432077407836914,0
0.9484342575073241,0.6432077407836914,0
0.9363973617553710,0.6430068969726562,0
0.9429033279418945,0.6430068969726562,0
0.9447629928588867,0.6378536224365234,0
0.9372585296630859,0.6378536224365234,0
0.9454988479614257,0.6360317230224609,0
0.9371784210205077,0.6360317230224609,0
0.9353553771972656,0.6295955657958984,0
0.9517856597900390,0.6295955657958984,0
0.9382146835327148,0.6333177566528320,0
0.9285902023315429,0.6333177566528320,0
0.9302158355712891,0.6355785369873047,0
0.9377145767211914,0.6355785369873047,0
0.9405550003051757,0.6329526901245117,0
0.9341354370117188,0.6329526901245117,0
0.9431407928466796,0.6338836669921875,0
0.9358732223510742,0.6338836669921875,0
0.9348747253417968,0.6300687789916992,0
0.9522342681884766,0.6300687789916992,0
0.9396074295043945,0.6357862472534179,0
0.9306449890136719,0.6357862472534179,0
0.9329360961914062,0.6397333145141602,0
0.9409778594970702,0.6397333145141602,0
0.9443332672119140,0.6383554458618164,0
0.9382518768310546,0.6383554458618164,0
0.9474735260009766,0.6400760650634766,0
0.9405372619628906,0.6400760650634766,0
0.9396537780761718,0.6366022109985351,0
0.9571580886840820,0.6366022109985351,0
0.9444025039672851,0.6424106597900391,0
0.9353416442871093,0.6424106597900391,0
0.9375858306884766,0.6460578918457031,0
0.9453987121582030,0.6460578918457031,0
0.9486310958862304,0.6440883636474609,0
0.9423791885375976,0.6440883636474609,0
0.9511934280395508,0.6451887130737305,0
0.9440797805786132,0.6451887130737305,0
0.9429445266723633,0.6409000396728516,0
0.9600837707519531,0.6409000396728516,0
0.9471588134765625,0.6460395812988281,0
0.9379371643066405,0.6460395812988281,0
0.9398740768432616,0.6490058898925781,0
0.9473642349243163,0.6490058898925781,0
0.9448585510253906,0.6574922561645508,0
0.9448585510253906,0.6399965286254883,0
0.9484857559204101,0.6545700073242188,0
0.9350212097167968,0.6545700073242188,0
0.9421096801757812,0.6459114074707031,0
0.9395690917968750,0.6459114074707031,0
0.9513788223266602,0.6406293869018554,0
0.9546815872192382,0.6406293869018554,0
0.9482334136962890,0.6471931457519531,0
0.9445610046386719,0.6471931457519531,0
0.9451337814331054,0.6402299880981445,0
0.9605140686035156,0.6402299880981445,0
0.9485750198364258,0.6548063278198242,0
0.9350938796997070,0.6548063278198242,0
0.9420679092407226,0.6460247039794922,0
0.9394506454467773,0.6460247039794922,0
0.9513456344604492,0.6408525466918945,0
0.9546409606933594,0.6408525466918945,0
0.9480537414550780,0.6473670959472656,0
0.9443944931030273,0.6473670959472656,0
0.9450868606567382,0.6406047821044921,0
0.9603492736816406,0.6406047821044921,0
0.9485973358154296,0.6551725387573242,0
0.9350852966308594,0.6551725387573242,0
0.9422739028930663,0.6465517044067383,0
0.9395256042480469,0.6465517044067383,0
0.9513593673706054,0.6414728164672852,0
0.9547525405883789,0.6414728164672852,0
0.9482975006103516,0.6480749130249023,0
0.9446519851684569,0.6480749130249023,0
0.9454193115234375,0.6413366317749023,0
0.9606777191162109,0.6413366317749023,0
0.9490539550781250,0.6560697555541992,0
0.9356077194213867,0.6560697555541992,0
0.9427951812744140,0.6473842620849609,0
0.9401115417480468,0.6473842620849609,0
0.9518514633178711,0.6419734954833984,0
0.9550930023193359,0.6419734954833984,0
0.9482643127441406,0.6474792480468750,0
0.9441598892211913,0.6474792480468750,0
0.9442743301391601,0.6392045974731445,0
0.9589204788208008,0.6392045974731445,0
0.9465202331542968,0.6518051147460937,0
0.9320589065551758,0.6518051147460937,0
0.9381723403930664,0.6402420043945313,0
0.9344072341918945,0.6402420043945313,0
0.9451829910278320,0.6322591781616210,0
0.9477046966552733,0.6322591781616210,0
0.9402837753295898,0.6362777709960937,0
0.9358148574829102,0.6362777709960937,0
0.9358177185058594,0.6275018692016602,0
0.9501731872558593,0.6275018692016602,0
0.9381752014160156,0.6407827377319336,0
0.9244394302368164,0.6407827377319336,0
0.9313556671142578,0.6315576553344726,0
0.9286022186279297,0.6315576553344726,0
0.9403919219970702,0.6263448715209960,0
0.9441272735595703,0.6263448715209960,0
0.9376047134399413,0.6333784103393555,0
0.9341783523559570,0.6333784103393555,0
0.9351774215698242,0.6272254943847656,0
0.9504106521606445,0.6272254943847656,0
0.9391937255859375,0.6427665710449219,0
0.9262744903564453,0.6427665710449219,0
0.9337915420532226,0.6351482391357421,0
0.9314540863037108,0.6351482391357421,0
0.9437198638916016,0.6312086105346679,0
0.9479352951049804,0.6312086105346679,0
0.9417325973510742,0.6391983032226562,0
0.9386444091796875,0.6391983032226562,0
0.9398574829101562,0.6336381912231445,0
0.9551971435546874,0.6336381912231445,0
0.9442285537719726,0.6494447708129882,0
0.9312486648559570,0.6494447708129882,0
0.9387313842773437,0.6419088363647460,0
0.9364528656005859,0.6419088363647460,0
0.9485200881958007,0.6375680923461914,0
0.9526210784912109,0.6375680923461914,0
0.9461265563964844,0.6448911666870117,0
0.9428163528442383,0.6448911666870117,0
0.9437307357788085,0.6386615753173828,0
0.9585731506347656,0.6386615753173828,0
0.9474534988403320,0.6536973953247071,0
0.9342212677001953,0.6536973953247071,0
0.9413898468017577,0.6452470779418945,0
0.9386747360229492,0.6452470779418945,0
0.9505760192871093,0.6401687622070312,0
0.9544881820678710,0.6401687622070312,0
0.9476892471313476,0.6468109130859375,0
0.9440282821655273,0.6468109130859375,0
0.9448299407958984,0.6400108337402344,0
0.9593484878540038,0.6400108337402344,0
0.9481578826904297,0.6546232223510742,0
0.9347682952880859,0.6546232223510742,0
0.9418418884277343,0.6457775115966796,0
0.9390295028686523,0.6457775115966796,0
0.9508432388305663,0.6406122207641601,0
0.9548572540283202,0.6406122207641601,0
0.9479621887207030,0.6471633911132812,0
0.9443378448486328,0.6471633911132812,0
0.9451286315917968,0.6403587341308593,0
0.9596717834472656,0.6403587341308593,0
0.9484954833984375,0.6550151824951171,0
0.9352134704589843,0.6550151824951171,0
0.9423883438110351,0.6462610244750976,0
0.9394878387451171,0.6462610244750976,0
0.9511894226074218,0.6410419464111328,0
0.9553848266601562,0.6410419464111328,0
0.9483032226562500,0.6477642059326172,0
0.9446920394897460,0.6477642059326172,0
0.9454816818237304,0.6409332275390625,0
0.9599000930786132,0.6409332275390625,0
0.9487455368041992,0.6555862426757812,0
0.9354532241821288,0.6555862426757812,0
0.9426750183105468,0.6469854354858399,0
0.9398569107055663,0.6469854354858399,0
0.9515396118164062,0.6419494628906249,0
0.9559249877929688,0.6419494628906249,0
0.9490190505981445,0.6487712860107422,0
0.9454467773437499,0.6487712860107422,0
0.9462924957275390,0.6419981002807617,0
0.9605300903320312,0.6419981002807617,0
0.9494241714477538,0.6562070846557617,0
0.9359830856323241,0.6562070846557617,0
0.9428426742553710,0.6466426849365234,0
0.9393527984619140,0.6466426849365234,0
0.9505531311035156,0.6398202896118164,0
0.9542261123657226,0.6398202896118164,0
0.9463788986206054,0.6441679000854492,0
0.9416112899780273,0.6441679000854492,0
0.9413812637329101,0.6342927932739257,0
0.9543920516967773,0.6342927932739257,0
0.9423809051513672,0.6457082748413085,0
0.9278778076171874,0.6457082748413085,0
0.9339076995849609,0.6340805053710937,0
0.9299411773681641,0.6340805053710937,0
0.9407329559326172,0.6264873504638672,0
0.9444316864013671,0.6264873504638672,0
0.9368906021118164,0.6316852569580078,0
0.9327919006347656,0.6316852569580078,0
0.9334522247314453,0.6241636276245117,0
0.9473939895629883,0.6241636276245117,0
0.9364814758300781,0.6386987686157226,0
0.9233516693115233,0.6386987686157226,0
0.9305717468261718,0.6303131103515625,0
0.9278400421142577,0.6303131103515625,0
0.9397653579711913,0.6257377624511719,0
0.9447257995605468,0.6257377624511719,0
0.9377655029296874,0.6333406448364257,0
0.9345399856567382,0.6333406448364257,0
0.9357913970947265,0.6276248931884766,0
0.9502120971679687,0.6276248931884766,0
0.9399776458740234,0.6434240341186523,0
0.9272861480712891,0.6434240341186523,0
0.9350034713745117,0.6360780715942382,0
0.9411254882812500,0.6340370178222656,0
0.9411254882812500,0.6376029968261718,0
0.9347648620605469,0.6428586959838867,0
0.9472045898437500,0.6398025512695312,0
0.9416673660278320,0.6398025512695312,0
0.9477561950683593,0.6419385910034180,0
0.9419363021850585,0.6419385910034180,0
0.9404886245727538,0.6379068374633788,0
0.9583065032958984,0.6379068374633788,0
0.9458776473999023,0.6438892364501952,0
0.9359682083129882,0.6438892364501952,0
0.9390483856201172,0.6485280990600586,0
0.9459159851074218,0.6485280990600586,0
0.9509147644042968,0.6445363998413086,0
0.9450685501098632,0.6445363998413086,0
0.9506389617919921,0.6458152770996094,0
0.9445604324340819,0.6458152770996094,0
0.9428243637084961,0.6408611297607422,0
0.9602960586547851,0.6408611297607422,0
0.9476846694946288,0.6461597442626953,0
0.9374198913574219,0.6461597442626953,0
0.9402900695800781,0.6502452850341797,0
0.9482271194458007,0.6431745529174805,0
0.9453666687011718,0.6399255752563476,0
0.9511619567871094,0.6412988662719726,0
0.9431144714355468,0.6508443832397460,0
0.9606634140014648,0.6412485122680663,0
0.9377477645874023,0.6465499877929687,0
0.9509525299072266,0.6403896331787109,0
0.9485126495361328,0.6470809936523437,0
0.9523143768310547,0.6348432540893555,0
0.9515029907226562,0.6469951629638672,0
0.9489383697509766,0.6469951629638672,0
0.9430509567260742,0.6496685028076171,0
0.9398729324340820,0.6464384078979492,0
0.9565389633178710,0.6412090301513672,0
0.9412004470825195,0.6515773773193360,0
0.9528768539428710,0.6468338012695313,0
0.9463788986206054,0.6590984344482421,0
0.9494688034057617,0.6558700561523437,0
0.9440969467163085,0.6525558471679688,0
0.9491529464721680,0.6446233749389648,0
0.9387771606445312,0.6482419967651367,0
0.9418825149536132,0.6524150848388671,0
0.9532602310180663,0.6469659805297852,0
0.9463171005249023,0.6586400985717773,0
0.9482883453369140,0.6534650802612304,0
0.9420610427856445,0.6488491058349609,0
0.9361667633056641,0.6421829223632812,0
0.9464624404907226,0.6335363388061523,0
0.9366748809814452,0.6367132186889648,0
0.9442485809326171,0.6337978363037109,0
0.9408296585083007,0.6321115493774414,0
0.9376436233520508,0.6269433975219726,0
0.9306449890136719,0.6289970397949218,0
0.9357015609741210,0.6289970397949218,0
0.9435110092163086,0.6230890274047851,0
0.9323524475097655,0.6295938491821289,0
0.9399862289428711,0.6284906387329101,0
0.9388801574707031,0.6299320220947265,0
0.9368574142456054,0.6261400222778321,0
0.9316383361816406,0.6335557937622071,0
0.9287326812744140,0.6304492950439453,0
0.9467302322387695,0.6262327194213867,0
0.9393081665039062,0.6340106964111328,0
0.9438623428344726,0.6333652496337890,0
0.9432912826538086,0.6357610702514648,0
0.9416587829589843,0.6357610702514648,0
0.9368946075439453,0.6402952194213867,0
0.9341176986694335,0.6371852874755859,0
0.9522130966186523,0.6333028793334960,0
0.9366188049316406,0.6444797515869141,0
0.9493658065795898,0.6294313430786133,0
0.9440053939819335,0.6405424118041992,0
0.9432014465332030,0.6427505493164062,0
0.9466913223266601,0.6508392333984375,0
0.9415260314941406,0.6432380676269531,0
0.9470117568969726,0.6407421112060546,0
0.9398077011108398,0.6579689025878906,0
0.9398077011108398,0.6490350723266601,0
0.9518537521362305,0.6440282821655273,0
0.9451126098632812,0.6567420959472656,0
0.9481510162353515,0.6412113189697265,0
0.9357461929321289,0.6531703948974609,0
0.9390787124633788,0.6449483871459961,0
0.9477876663208007,0.6456693649291992,0
0.9406620025634765,0.6503665924072265,0
0.9466289520263671,0.6503665924072265,0
0.9466884613037109,0.6449203491210938,0
0.9455978393554687,0.6395393371582031,0
0.9485183715820312,0.6535663604736328,0
0.9429822921752929,0.6507007598876953,0
0.9481309890747069,0.6453460693359375,0
0.9481309890747069,0.6461603164672851,0
0.9408571243286132,0.6509811401367187,0
0.9486042022705078,0.6436151504516602,0
0.9460716247558594,0.6584484100341796,0
0.9587511062622069,0.6403266906738281,0
0.9363378524780273,0.6545774459838867,0
0.9436414718627929,0.6415878295898437,0
0.9488365173339843,0.6473470687866211,0
0.9513193130493164,0.6473470687866211,0
0.9494098663330077,0.6522743225097656,0
0.9494098663330077,0.6483850479125977,0
0.9469905853271484,0.6415157318115234,0
0.9517272949218749,0.6424707412719727,0
0.9443286895751952,0.6526107788085938,0
0.9618186950683594,0.6425233840942383,0
0.9491386413574219,0.6473888397216797,0
0.9511837005615233,0.6364906311035156,0
0.9480760574340820,0.6422430038452148,0
0.9434909820556641,0.6455240249633789,0
0.9546329498291015,0.6356672286987305,0
0.9469442367553711,0.6404994964599610,0
0.9368230819702148,0.6312669754028321,0
0.9354549407958984,0.6312669754028321,0
0.9405275344848633,0.6215377807617187,0
0.9405275344848633,0.6259740829467774,0
0.9365661621093749,0.6300807952880859,0
0.9404348373413085,0.6168010711669921,0
0.9370422363281250,0.6223245620727539,0
0.9312566757202148,0.6280082702636719,0
0.9468458175659179,0.6220252990722656,0
0.9293535232543945,0.6268724441528321,0
0.9369575500488281,0.6219732284545898,0
0.9277147293090819,0.6417205810546874,0
0.9320188522338867,0.6289455413818359,0
0.9334184646606445,0.6229265213012695,0
0.9382266998291016,0.6241922378540039,0
0.9315427780151366,0.6355836868286132,0
0.9496141433715820,0.6253486633300781,0
0.9270275115966796,0.6321229934692383,0
0.9403284072875976,0.6269628524780273,0
0.9394208908081054,0.6346029281616211,0
0.9444894790649414,0.6346029281616211,0
0.9428466796874999,0.6292081832885742,0
0.9428466796874999,0.6365083694458008,0
0.9367652893066406,0.6323759078979492,0
0.9375926971435546,0.6408771514892578,0
0.9458599090576172,0.6299514770507812,0
0.9530342102050781,0.6343460083007812,0
0.9417022705078124,0.6418882369995117,0
0.9499837875366210,0.6408164978027343,0
0.9477499008178710,0.6429971694946289,0
0.9464361190795898,0.6429971694946289,0
0.9588277816772460,0.6381048202514649,0
0.9415220260620116,0.6433010101318359,0
0.9491249084472656,0.6387176513671875,0
0.9398826599121093,0.6584209442138672,0
0.9522417068481445,0.6328491210937500,0
0.9467697143554688,0.6438755035400391,0
0.9494247436523438,0.6452865600585938,0
0.9480165481567382,0.6404663085937500,0
0.9427951812744140,0.6475439071655273,0
0.9391113281250000,0.6447864532470703,0
0.9567718505859375,0.6397853851318359,0
0.9406557083129883,0.6507139205932617,0
0.9529129028320312,0.6446508407592774,0
0.9455354690551757,0.6446508407592774,0
0.9483684539794921,0.6459114074707031,0
0.9483684539794921,0.6535623550415038,0
0.9433593750000000,0.6454959869384765,0
0.9480829238891602,0.6426029205322266,0
0.9412942886352539,0.6602508544921875,0
0.9467605590820312,0.6516580581665039,0
0.9535394668579101,0.6456836700439453,0
0.9462959289550781,0.6589107513427734,0
0.9492422103881836,0.6422561645507813,0
0.9366966247558594,0.6542884826660156,0
0.9404846191406250,0.6468515396118164,0
0.9490425109863281,0.6476371765136718,0
0.9422533035278320,0.6531629562377930,0
0.9497571945190429,0.6454359054565429,0
0.9492261886596679,0.6470300674438476,0
0.9513204574584960,0.6481447219848633,0
0.9499637603759765,0.6549865722656250,0
0.9399032592773438,0.6462724685668945,0
0.9483993530273437,0.6459789276123047,0
0.9396022796630858,0.6487323760986328,0
0.9458971023559570,0.6391353607177734,0
0.9406974792480468,0.6502956390380860,0
0.9406974792480468,0.6318838119506835,0
0.9407060623168945,0.6414751052856446,0
0.9268409729003906,0.6414751052856446,0
0.9333686828613281,0.6307937622070312,0
0.9283201217651367,0.6307937622070312,0
0.9379783630371094,0.6236732482910156,0
0.9446165084838867,0.6236732482910156,0
0.9352317810058594,0.6283830642700196,0
0.9312417984008788,0.6283830642700196,0
0.9320194244384765,0.6208671569824219,0
0.9434263229370117,0.6208671569824219,0
0.9345388412475586,0.6340879440307617,0
0.9221368789672851,0.6340879440307617,0
0.9299091339111327,0.6267848968505859,0
0.9261434555053710,0.6267848968505859,0
0.9367155075073241,0.6225013732910156,0
0.9443613052368164,0.6225013732910156,0
0.9356449127197265,0.6293787002563477,0
0.9323307037353515,0.6293787002563477,0
0.9338516235351562,0.6235347747802734,0
0.9457008361816406,0.6235347747802734,0
0.9374633789062500,0.6379137039184570,0
0.9254945755004882,0.6379137039184570,0
0.9336027145385741,0.6316606521606445,0
0.9384098052978516,0.6316606521606445,0
0.9407186508178711,0.6281576156616211,0
0.9487981796264648,0.6281576156616211,0
0.9402122497558594,0.6355791091918945,0
0.9370834350585937,0.6355791091918945,0
0.9386089324951171,0.6303171157836914,0
0.9505857467651366,0.6303171157836914,0
0.9425004959106444,0.6449523925781250,0
0.9307319641113281,0.6449523925781250,0
0.9391347885131835,0.6390747070312500,0
0.9355642318725585,0.6390747070312500,0
0.9461763381958007,0.6356203079223632,0
0.9541419982910155,0.6356203079223632,0
0.9455022811889648,0.6425771713256836,0
0.9422498703002929,0.6425771713256836,0
0.9436100006103515,0.6367486953735352,0
0.9553047180175781,0.6367486953735352,0
0.9469139099121093,0.6504735946655273,0
0.9347064971923827,0.6504735946655273,0
0.9428449630737304,0.6436866760253906,0
0.9389379501342773,0.6436866760253906,0
0.9490716934204101,0.6393350601196289,0
0.9568616867065429,0.6393350601196289,0
0.9477407455444335,0.6454456329345702,0
0.9441896438598633,0.6454456329345702,0
0.9453128814697265,0.6388778686523438,0
0.9566848754882812,0.6388778686523438,0
0.9481504440307617,0.6520408630371094,0
0.9360443115234375,0.6520408630371094,0
0.9441341400146483,0.6450628280639649,0
0.9400938034057617,0.6450628280639649,0
0.9500764846801757,0.6405109405517578,0
0.9579071044921874,0.6405109405517578,0
0.9486242294311523,0.6464612960815429,0
0.9450777053833007,0.6464612960815429,0
0.9460756301879882,0.6397962570190430,0
0.9573589324951172,0.6397962570190430,0
0.9488634109497069,0.6529226303100586,0
0.9366748809814452,0.6529226303100586,0
0.9448436737060546,0.6459634780883788,0
0.9488170623779296,0.6467010498046875,0
0.9420959472656250,0.6525758743286133,0
0.9470432281494140,0.6525758743286133,0
0.9549001693725585,0.6460996627807617,0
0.9496822357177734,0.6460996627807617,0
0.9507259368896483,0.6476840972900391,0
0.9462713241577148,0.6476840972900391,0
0.9442909240722656,0.6420089721679687,0
0.9620922088623046,0.6420089721679687,0
0.9499013900756835,0.6482042312622071,0
0.9516437530517577,0.6482042312622071,0
0.9430429458618164,0.6541391372680664,0
0.9503746032714844,0.6541391372680664,0
0.9558254241943359,0.6473030090332031,0
0.9503843307495117,0.6473030090332031,0
0.9512231826782226,0.6483489990234375,0
0.9466569900512695,0.6483489990234375,0
0.9443750381469727,0.6417057037353515,0
0.9615766525268554,0.6417057037353515,0
0.9487564086914062,0.6459646224975586,0
0.9362646102905273,0.6459646224975586,0
0.9397865295410156,0.6487558364868163,0
0.9432643890380858,0.6487558364868163,0
0.9499454498291016,0.6381677627563477,0
0.9431940078735351,0.6381677627563477,0
0.9425434112548827,0.6356695175170898,0
0.9366640090942382,0.6356695175170898,0
0.9334928512573242,0.6264713287353515,0
0.9501548767089844,0.6264713287353515,0
0.9369501113891601,0.6299697875976562,0
0.9246351242065429,0.6299697875976562,0
0.9287899017333984,0.6342006683349609,0
0.9330385208129882,0.6342006683349609,0
0.9409503936767578,0.6263397216796874,0
0.9354583740234375,0.6263397216796874,0
0.9353685379028320,0.6269502639770508,0
0.9307943344116211,0.6269502639770508,0
0.9289283752441406,0.6214004516601562,0
0.9467359542846679,0.6214004516601562,0
0.9347013473510741,0.6278417587280273,0
0.9233619689941406,0.6278417587280273,0
0.9283058166503906,0.6344987869262695,0
0.9332193374633788,0.6344987869262695,0
0.9417715072631836,0.6283647537231445,0
0.9368734359741211,0.6283647537231445,0
0.9378049850463867,0.6308916091918945,0
0.9339546203613280,0.6308916091918945,0
0.9322860717773437,0.6262269973754883,0
0.9504907608032226,0.6262269973754883,0
0.9387771606445312,0.6336296081542968,0
0.9276700973510742,0.6336296081542968,0
0.9329458236694336,0.6410144805908203,0
0.9380424499511718,0.6410144805908203,0
0.9469104766845703,0.6354623794555664,0
0.9423671722412109,0.6354623794555664,0
0.9432804107666015,0.6384355545043945,0
0.9396308898925780,0.6384355545043945,0
0.9380601882934569,0.6339500427246093,0
0.9563581466674804,0.6339500427246093,0
0.9445112228393554,0.6413223266601562,0
0.9333349227905273,0.6413223266601562,0
0.9384235382080077,0.6483072280883789,0
0.9432518005371093,0.6483072280883789,0
0.9518543243408203,0.6418704986572266,0
0.9467079162597656,0.6418704986572266,0
0.9472194671630859,0.6438852310180664,0
0.9432369232177734,0.6438852310180664,0
0.9412685394287109,0.6384258270263672,0
0.9591236114501953,0.6384258270263672,0
0.9470191955566406,0.6448379516601562,0
0.9354738235473632,0.6448379516601562,0
0.9402711868286132,0.6510486602783203,0
0.9448247909545898,0.6510486602783203,0
0.9532756805419922,0.6439521789550781,0
0.9481235504150390,0.6439521789550781,0
0.9482866287231445,0.6454233169555664,0
0.9441976547241211,0.6454233169555664,0
0.9421726226806640,0.6396171569824218,0
0.9600889205932617,0.6396171569824218,0
0.9479364395141601,0.6458433151245117,0
0.9362142562866210,0.6458433151245117,0
0.9410573959350585,0.6519973754882812,0
0.9454879760742188,0.6519973754882812,0
0.9541608810424804,0.6447738647460938,0
0.9489572525024413,0.6447738647460938,0
0.9489572525024413,0.6462959289550781,0
0.9448585510253906,0.6462959289550781,0
0.9427820205688476,0.6404514312744141,0
0.9606800079345703,0.6404514312744141,0
0.9485549926757812,0.6467857360839844,0
0.9368997573852539,0.6467857360839844,0
0.9417823791503905,0.6531005859375000,0
0.9461797714233398,0.6531005859375000,0
0.9549682617187499,0.6459514617919921,0
0.9498201370239258,0.6459514617919921,0
0.9497726440429687,0.6475662231445313,0
0.9458353042602539,0.6475662231445313,0
0.9437015533447265,0.6417640686035156,0
0.9615280151367187,0.6417640686035156,0
0.9493057250976562,0.6481218338012695,0
0.9375692367553711,0.6481218338012695,0
0.9424690246582030,0.6544252395629883,0
0.9467485427856445,0.6544252395629883,0
0.9556463241577148,0.6470317840576172,0
0.9505147933959961,0.6470317840576172,0
0.9501451492309569,0.6484451293945312,0
0.9459892272949219,0.6484451293945312,0
0.9436174392700195,0.6418796539306640,0
0.9612087249755858,0.6418796539306640,0
0.9486156463623047,0.6469253540039063,0
0.9361701965332031,0.6469253540039063,0
0.9403867721557617,0.6509284973144531,0
0.9435979843139648,0.6509284973144531,0
0.9513175964355468,0.6402156829833984,0
0.9447778701782226,0.6402156829833984,0
0.9430898666381835,0.6381420135498047,0
0.9377861022949219,0.6381420135498047,0
0.9344261169433593,0.6286537170410156,0
0.9510246276855469,0.6286537170410156,0
0.9378124237060547,0.6320039749145507,0
0.9250362396240234,0.6320039749145507,0
0.9293169021606444,0.6362096786499023,0
0.9329217910766601,0.6362096786499023,0
0.9415409088134765,0.6276420593261719,0
0.9361667633056641,0.6276420593261719,0
0.9355201721191406,0.6286834716796875,0
0.9316257476806640,0.6286834716796875,0
0.9296081542968749,0.6225866317749024,0
0.9476366043090820,0.6225866317749024,0
0.9356311798095702,0.6294519424438476,0
0.9240056991577148,0.6294519424438476,0
0.9292436599731445,0.6363132476806640,0
0.9335752487182617,0.6363132476806640,0
0.9430177688598632,0.6295984268188476,0
0.9382364273071289,0.6295984268188476,0
0.9379291534423828,0.6321241378784179,0
0.9344404220581054,0.6321241378784179,0
0.9328382492065429,0.6273273468017578,0
0.9512592315673828,0.6273273468017578,0
0.9396039962768554,0.6351373672485351,0
0.9413097381591796,0.6351373672485351,0
0.9337314605712890,0.6427585601806640,0
0.9382862091064452,0.6427585601806640,0
0.9481693267822265,0.6366857528686524,0
0.9435945510864258,0.6366857528686524,0
0.9432271957397460,0.6396177291870117,0
0.9400028228759765,0.6396177291870117,0
0.9384670257568359,0.6348993301391601,0
0.9569091796875000,0.6348993301391601,0
0.9451217651367188,0.6425737380981446,0
0.9336187362670898,0.6425737380981446,0
0.9389991760253906,0.6498338699340820,0
0.9432666778564452,0.6498338699340820,0
0.9528596878051757,0.6429697036743164,0
0.9479644775390624,0.6429697036743164,0
0.9471370697021484,0.6450216293334960,0
0.9436111450195312,0.6450216293334960,0
0.9415901184082031,0.6392137527465820,0
0.9596963882446289,0.6392137527465820,0
0.9476509094238281,0.6459589004516602,0
0.9357873916625976,0.6459589004516602,0
0.9408994674682617,0.6524013519287110,0
0.9447595596313476,0.6524013519287110,0
0.9542942047119141,0.6447429656982422,0
0.9492078781127929,0.6447429656982422,0
0.9480451583862304,0.6462970733642578,0
0.9443275451660156,0.6462970733642578,0
0.9422739028930663,0.6401338577270508,0
0.9602588653564452,0.6401338577270508,0
0.9480903625488281,0.6467319488525390,0
0.9361141204833984,0.6467319488525390,0
0.9412450790405273,0.6530279159545899,0
0.9451097488403319,0.6530279159545899,0
0.9548303604125976,0.6453432083129883,0
0.9497451782226562,0.6453432083129883,0
0.9484840393066406,0.6469299316406250,0
0.9448717117309570,0.6469299316406250,0
0.9427465438842773,0.6408210754394531,0
0.9608339309692382,0.6408210754394531,0
0.9487907409667968,0.6476749420166016,0
0.9367486953735351,0.6476749420166016,0
0.9419483184814452,0.6540103912353515,0
0.9458084106445312,0.6540103912353515,0
0.9556091308593749,0.6462736129760742,0
0.9506052017211913,0.6462736129760742,0
0.9491146087646484,0.6480588912963867,0
0.9455955505371093,0.6480588912963867,0
0.9435041427612304,0.6419729232788086,0
0.9616516113281249,0.6419729232788086,0
0.9495672225952148,0.6490293502807617,0
0.9377780914306640,0.6490293502807617,0
0.9429548263549804,0.6554643630981445,0
0.9468915939331054,0.6554643630981445,0
0.9569955825805664,0.6478740692138671,0
0.9521255493164062,0.6478740692138671,0
0.9505834579467773,0.6496753692626953,0
0.9470237731933593,0.6496753692626953,0
0.9448087692260742,0.6432071685791015,0
0.9629642486572265,0.6432071685791015,0
0.9505445480346679,0.6495992660522460,0
0.9381523132324219,0.6495992660522460,0
0.9427980422973632,0.6543354034423828,0
0.9457323074340820,0.6543354034423828,0
0.9551164627075195,0.6441833496093750,0
0.9491626739501953,0.6441833496093750,0
0.9460441589355468,0.6427242279052734,0
0.9412462234497070,0.6427242279052734,0
0.9379056930541991,0.6329727172851562,0
0.9548898696899414,0.6329727172851562,0
0.9415180206298828,0.6367527008056640,0
0.9282262802124023,0.6367527008056640,0
0.9323902130126953,0.6400039672851562,0
0.9350589752197265,0.6400039672851562,0
0.9446514129638671,0.6301076889038085,0
0.9391490936279296,0.6301076889038085,0
0.9367160797119141,0.6307125091552734,0
0.9330682754516602,0.6307125091552734,0
0.9306472778320312,0.6238014221191406,0
0.9488542556762695,0.6238014221191406,0
0.9366353988647460,0.6311302185058594,0
0.9246826171875000,0.6311302185058594,0
0.9299463272094726,0.6375217437744141,0
0.9336736679077148,0.6375217437744141,0
0.9442983627319336,0.6301746368408203,0
0.9397521972656250,0.6301746368408203,0
0.9379131317138671,0.6328685760498046,0
0.9349691390991210,0.6328685760498046,0
0.9331729888916015,0.6275545120239258,0
0.9519544601440429,0.6275545120239258,0
0.9401172637939452,0.6362176895141601,0
0.9285387039184569,0.6362176895141601,0
0.9341337203979492,0.6435070037841797,0
0.9381179809570312,0.6435070037841797,0
0.9490591049194336,0.6368928909301758,0
0.9446514129638671,0.6368928909301758,0
0.9427745819091796,0.6400634765625000,0
0.9398900985717773,0.6400634765625000,0
0.9379938125610351,0.6348678588867187,0
0.9568588256835937,0.6348678588867187,0
0.9450954437255858,0.6435207366943360,0
0.9332490921020508,0.6435207366943360,0
0.9387886047363281,0.6503385543823242,0
0.9425159454345703,0.6503385543823242,0
0.9534324645996093,0.6430521011352539,0
0.9488862991333007,0.6430521011352539,0
0.9466844558715820,0.6454959869384765,0
0.9436964035034179,0.6454959869384765,0
0.9415014266967773,0.6394369125366210,0
0.9600906372070312,0.6394369125366210,0
0.9481258392333984,0.6474317550659180,0
0.9360752105712891,0.6474317550659180,0
0.9413045883178710,0.6533369064331055,0
0.9446680068969726,0.6533369064331055,0
0.9555227279663085,0.6451240539550781,0
0.9507019042968750,0.6451240539550781,0
0.9479804992675781,0.6470804214477539,0
0.9447721481323241,0.6470804214477539,0
0.9423780441284180,0.6404851913452149,0
0.9608951568603515,0.6404851913452149,0
0.9486865997314453,0.6482276916503906,0
0.9365095138549804,0.6482276916503906,0
0.9417554855346679,0.6539073944091797,0
0.9451194763183594,0.6539073944091797,0
0.9561452865600586,0.6456373214721679,0
0.9512140274047851,0.6456373214721679,0
0.9485366821289062,0.6477705001831054,0
0.9453729629516601,0.6477705001831054,0
0.9430978775024413,0.6411163330078125,0
0.9617168426513671,0.6411163330078125,0
0.9494361877441406,0.6491128921508789,0
0.9371852874755859,0.6491128921508789,0
0.9423786163330078,0.6546621322631836,0
0.9457042694091796,0.6546621322631836,0
0.9567197799682616,0.6463731765747071,0
0.9518262863159179,0.6463731765747071,0
0.9490139007568359,0.6485578536987304,0
0.9457843780517577,0.6485578536987304,0
0.9433702468872069,0.6418848037719727,0
0.9619371414184570,0.6418848037719727,0
0.9497554779052734,0.6500352859497071,0
0.9374216079711913,0.6500352859497071,0
0.9426652908325195,0.6556268692016601,0
0.9459383010864257,0.6556268692016601,0
0.9571907043457031,0.6474151611328125,0
0.9525129318237304,0.6474151611328125,0
0.9496644973754882,0.6498361587524414,0
0.9466283798217773,0.6498361587524414,0
0.9442754745483398,0.6431928634643554,0
0.9630249023437499,0.6431928634643554,0
0.9507911682128906,0.6512111663818360,0
0.9384069442749023,0.6512111663818360,0
0.9434566497802734,0.6558792114257812,0
0.9462902069091796,0.6558792114257812,0
0.9570413589477539,0.6461345672607421,0
0.9517250061035156,0.6461345672607421,0
0.9479473114013671,0.6465414047241210,0
0.9438978195190429,0.6465414047241210,0
0.9403558731079101,0.6368104934692382,0
0.9578830718994140,0.6368104934692382,0
0.9392492294311523,0.6371063232421875,0
0.9352792739868163,0.6520626068115234,0
0.9352792739868163,0.6374731063842773,0
0.9476806640625000,0.6374731063842773,0
0.9352706909179687,0.6288087844848632,0
0.9436454772949219,0.6288087844848632,0
0.9385282516479492,0.6377929687500000,0
0.9266235351562500,0.6377929687500000,0
0.9388807296752929,0.6328479766845703,0
0.9330659866333008,0.6328479766845703,0
0.9381185531616211,0.6298673629760742,0
0.9486568450927734,0.6298673629760742,0
0.9382839202880859,0.6340833663940429,0
0.9347986221313476,0.6340833663940429,0
0.9343013763427734,0.6282136917114257,0
0.9435167312622070,0.6282136917114257,0
0.9392395019531250,0.6393047332763672,0
0.9282251358032226,0.6393047332763672,0
0.9411878585815430,0.6361707687377930,0
0.9357707977294921,0.6361707687377930,0
0.9411575317382812,0.6345268249511719,0
0.9520591735839843,0.6345268249511719,0
0.9421360015869140,0.6397813796997071,0
0.9390163421630859,0.6397813796997071,0
0.9386953353881835,0.6347528457641601,0
0.9482162475585937,0.6347528457641601,0
0.9441993713378906,0.6462673187255860,0
0.9333709716796874,0.6462673187255860,0
0.9465362548828125,0.6434366226196289,0
0.9411981582641601,0.6434366226196289,0
0.9463399887084960,0.6417680740356445,0
0.9572570800781249,0.6417680740356445,0
0.9472675323486328,0.6465173721313476,0
0.9439533233642577,0.6465173721313476,0
0.9432266235351562,0.6407793045043945,0
0.9524356842041015,0.6407793045043945,0
0.9483186721801757,0.6513158798217773,0
0.9369752883911132,0.6513158798217773,0
0.9498773574829101,0.6476016998291015,0
0.9441581726074219,0.6476016998291015,0
0.9488536834716796,0.6449340820312500,0
0.9595012664794922,0.6449340820312500,0
0.9490058898925781,0.6488159179687499,0
0.9454330444335937,0.6488159179687499,0
0.9445655822753906,0.6425107955932617,0
0.9533992767333984,0.6425107955932617,0
0.9491701126098633,0.6525146484375000,0
0.9377666473388672,0.6525146484375000,0
0.9507173538208007,0.6484863281250000,0
0.9448242187500000,0.6484863281250000,0
0.9493045806884766,0.6456745147705077,0
0.9599578857421874,0.6456745147705077,0
0.9495655059814453,0.6493761062622070,0
0.9458988189697265,0.6493761062622070,0
0.9449312210083007,0.6428747177124023,0
0.9537723541259765,0.6428747177124023,0
0.9494939804077148,0.6529054641723633,0
0.9380121231079102,0.6529054641723633,0
0.9511156082153320,0.6489028930664062,0
0.9450805664062499,0.6489028930664062,0
0.9494167327880859,0.6461706161499023,0
0.9425205230712890,0.6625648498535156,0
0.9574716567993163,0.6366886138916016,0
0.9529506683349609,0.6463376998901367,0
0.9463794708251952,0.6494018554687500,0
0.9500061035156250,0.6536670684814453,0
0.9518703460693358,0.6498424530029296,0
0.9502069473266601,0.6455572128295898,0
0.9610862731933594,0.6472080230712890,0
0.9469339370727539,0.6510211944580078,0
0.9583431243896484,0.6475135803222656,0
0.9500295639038085,0.6425737380981446,0
0.9446897506713867,0.6575586318969726,0
0.9639049530029297,0.6437845230102539,0
0.9391525268554687,0.6532293319702148,0
0.9511190414428711,0.6483816146850586,0
0.9511848449707031,0.6513811111450195,0
0.9587911605834960,0.6377603530883789,0
0.9492765426635742,0.6405344009399414,0
0.9371046066284179,0.6518503189086914,0
0.9422143936157226,0.6396680831909179,0
0.9470043182373047,0.6464744567871094,0
0.9453466415405273,0.6386060714721680,0
0.9436271667480468,0.6409498214721679,0
0.9503723144531250,0.6264839172363281,0
0.9400600433349608,0.6287103652954101,0
0.9365306854248047,0.6369758605957031,0
0.9520414352416992,0.6284894943237305,0
0.9413995742797852,0.6354148864746093,0
0.9496049880981445,0.6323598861694336,0
0.9319232940673827,0.6403421401977539,0
0.9469287872314452,0.6229894638061523,0
0.9386621475219726,0.6300590515136718,0
0.9386621475219726,0.6361879348754883,0
0.9336198806762694,0.6300046920776367,0
0.9426727294921875,0.6378988265991211,0
0.9409772872924804,0.6365175247192383,0
0.9348718643188476,0.6527389526367188,0
0.9391834259033203,0.6412742614746093,0
0.9467988967895508,0.6362720489501953,0
0.9430515289306640,0.6426858901977539,0
0.9383531570434570,0.6368436813354492,0
0.9476749420166015,0.6446468353271484,0
0.9458152770996093,0.6420759201049805,0
0.9396068572998046,0.6431362152099609,0
0.9436506271362304,0.6474134445190429,0
0.9425296783447266,0.6417360305786133,0
0.9470478057861328,0.6477149963378906,0
0.9418395996093749,0.6551416397094726,0
0.9446622848510742,0.6486173629760742,0
0.9488828659057617,0.6512804031372070,0
0.9418859481811523,0.6538009643554688,0
0.9490785598754883,0.6538009643554688,0
0.9525993347167968,0.6455835342407227,0
0.9439367294311523,0.6433856964111327,0
0.9490470886230469,0.6528024673461914,0
0.9426218032836914,0.6561424255371093,0
0.9494064331054687,0.6457695007324219,0
0.9369398117065429,0.6519882202148437,0
0.9422521591186523,0.6540630340576171,0
0.9493125915527343,0.6467285156250000,0
0.9526325225830078,0.6437868118286133,0
0.9493892669677734,0.6531583786010742,0
0.9428478240966797,0.6567541122436523,0
0.9497800827026367,0.6462615966796875,0
0.9373329162597656,0.6526502609252930,0
0.9449724197387694,0.6544235229492187,0
0.9496685028076172,0.6505262374877929,0
0.9443309783935546,0.6443853378295898,0
0.9488227844238281,0.6415935516357422,0
0.9431591033935547,0.6574453353881836,0
0.9627307891845702,0.6429965972900390,0
0.9500753402709960,0.6533626556396485,0
0.9491552352905273,0.6473997116088867,0
0.9498825073242188,0.6513341903686524,0
0.9578584671020507,0.6513341903686524,0
0.9531578063964843,0.6453432083129883,0
0.9492387771606445,0.6510057449340820,0
0.9437370300292969,0.6440425872802734,0
0.9533832550048827,0.6511058807373047,0
0.9497955322265624,0.6544795989990234,0
0.9612630844116210,0.6489543914794922,0
0.9463800430297851,0.6516111373901367,0
0.9581010818481445,0.6464693069458007,0
0.9483804702758789,0.6492685317993164,0
0.9450027465820312,0.6492685317993164,0
0.9604671478271484,0.6403987884521484,0
0.9505096435546875,0.6469150543212890,0
0.9449941635131835,0.6417949676513671,0
0.9379091262817383,0.6549081802368164,0
0.9512231826782226,0.6283178329467773,0
0.9512231826782226,0.6367109298706054,0
0.9409578323364257,0.6390838623046875,0
0.9412187576293944,0.6286880493164062,0
0.9439115524291992,0.6378759384155274,0
0.9370164871215820,0.6378759384155274,0
0.9515104293823242,0.6352066040039063,0
0.9336999893188476,0.6416290283203124,0
0.9489263534545898,0.6339729309082031,0
0.9356826782226562,0.6339729309082031,0
0.9415380477905273,0.6387983322143554,0
0.9415380477905273,0.6426469802856445,0
0.9456956863403320,0.6406190872192382,0
0.9430458068847656,0.6376001358032226,0
0.9366199493408203,0.6538450241088867,0
0.9390180587768554,0.6460865020751952,0
0.9486236572265625,0.6393287658691406,0
0.9392835617065429,0.6385391235351562,0
0.9456115722656250,0.6486207962036132,0
0.9393636703491210,0.6536727905273437,0
0.9470695495605468,0.6433942794799804,0
0.9346332550048828,0.6503265380859374,0
0.9424295425415039,0.6512678146362304,0
0.9475044250488280,0.6484891891479492,0
0.9423139572143554,0.6429748535156250,0
0.9472967147827148,0.6400646209716797,0
0.9429107666015625,0.6577611923217773,0
0.9429107666015625,0.6427099227905273,0
0.9502338409423827,0.6539617538452148,0
0.9489440917968750,0.6482522964477538,0
0.9501194000244140,0.6476875305175781,0
0.9462827682495116,0.6511356353759765,0
0.9529541015624999,0.6450811386108398,0
0.9493984222412108,0.6505989074707031,0
0.9437210083007812,0.6436094284057617,0
0.9541088104248047,0.6436094284057617,0
0.9493749618530273,0.6546289443969726,0
0.9493749618530273,0.6485979080200195,0
0.9504878997802734,0.6514657974243164,0
0.9585416793823242,0.6386804580688477,0
0.9496067047119140,0.6421920776367187,0
0.9468852996826171,0.6509124755859375,0
0.9638935089111328,0.6439956665039063,0
0.9543960571289062,0.6513181686401367,0
0.9495460510253906,0.6490173339843750,0
0.9439361572265624,0.6490173339843750,0
0.9468938827514648,0.6519132614135742,0
0.9588523864746094,0.6469001770019531,0
0.9499311447143555,0.6514148712158203,0
0.9506669998168945,0.6412994384765625,0
0.9551330566406250,0.6509502410888671,0
0.9480800628662109,0.6521947860717773,0
0.9502126693725585,0.6499162673950195,0
0.9445770263671874,0.6631273269653321,0
0.9594463348388671,0.6402322769165039,0
0.9556177139282226,0.6479066848754883,0
0.9480171203613281,0.6525438308715820,0
0.9516345977783203,0.6555393218994140,0
0.9558265686035156,0.6529529571533202,0
0.9521404266357422,0.6529529571533202,0
0.9445186614990234,0.6500392913818359,0
0.9445186614990234,0.6548069000244140,0
0.9540172576904297,0.6458936691284179,0
0.9442045211791992,0.6442731857299805,0
0.9486213684082031,0.6505840301513671,0
0.9413743972778320,0.6454862594604492,0
0.9463314056396483,0.6481201171875000,0
0.9373575210571289,0.6521610260009766,0
0.9380521774291992,0.6444517135620117,0
0.9364128112792969,0.6351207733154297,0
0.9364128112792969,0.6337411880493163,0
0.9442337036132812,0.6337411880493163,0
0.9414791107177733,0.6275630950927734,0
0.9348146438598632,0.6309585571289062,0
0.9547365188598632,0.6309585571289062,0
0.9415483474731445,0.6422510147094727,0
0.9288379669189453,0.6422510147094727,0
0.9345474243164062,0.6410413742065429,0
0.9361610412597656,0.6410413742065429,0
0.9494888305664062,0.6342699050903320,0
0.9462638854980469,0.6342699050903320,0
0.9417749404907226,0.6398042678833008,0
0.9391742706298828,0.6398042678833008,0
0.9367944717407226,0.6340673446655273,0
0.9572668075561523,0.6340673446655273,0
0.9445592880249023,0.6467828750610352,0
0.9320749282836913,0.6467828750610352,0
0.9381500244140625,0.6461334228515625,0
0.9399198532104491,0.6461334228515625,0
0.9534948348999023,0.6400239944458007,0
0.9505216598510742,0.6400239944458007,0
0.9459125518798828,0.6458581924438477,0
0.9433015823364257,0.6458581924438477,0
0.9409097671508788,0.6400011062622070,0
0.9613203048706054,0.6400011062622070,0
0.9482574462890625,0.6461631774902343,0
0.9415374755859375,0.6587156295776367,0
0.9564685821533203,0.6444179534912109,0
0.9532659530639648,0.6444179534912109,0
0.9483409881591797,0.6495283126831054,0
0.9455446243286132,0.6495283126831054,0
0.9430234909057617,0.6432163238525390,0
0.9636606216430663,0.6432163238525390,0
0.9504570007324218,0.6552618026733398,0
0.9376316070556641,0.6552618026733398,0
0.9435550689697265,0.6531538009643555,0
0.9448900222778320,0.6531538009643555,0
0.9581125259399413,0.6462404251098632,0
0.9549934387207031,0.6462404251098632,0
0.9500267028808593,0.6510938644409180,0
0.9471124649047851,0.6510938644409180,0
0.9445621490478515,0.6443315505981445,0
0.9647089004516601,0.6443315505981445,0
0.9513982772827148,0.6560251235961914,0
0.9384063720703124,0.6560251235961914,0
0.9442028045654296,0.6534879684448242,0
0.9452831268310546,0.6534879684448242,0
0.9583745956420898,0.6464406967163085,0
0.9553150177001952,0.6464406967163085,0
0.9502824783325194,0.6511602401733398,0
0.9473081588745117,0.6511602401733398,0
0.9446846008300781,0.6445621490478516,0
0.9648777008056640,0.6445621490478516,0
0.9515178680419921,0.6564073562622070,0
0.9386323928833007,0.6564073562622070,0
0.9446216583251953,0.6537832260131836,0
0.9457197189331055,0.6537832260131836,0
0.9589090347290039,0.6471485137939453,0
0.9560577392578125,0.6471485137939453,0
0.9511150360107421,0.6520940780639648,0
0.9481962203979492,0.6520940780639648,0
0.9456802368164062,0.6455835342407227,0
0.9658063888549804,0.6455835342407227,0
0.9525054931640624,0.6575563430786132,0
0.9395587921142577,0.6575563430786132,0
0.9455331802368163,0.6547101974487305,0
0.9464727401733398,0.6547101974487305,0
0.9596099853515625,0.6480176925659179,0
0.9568725585937500,0.6480176925659179,0
0.9517238616943359,0.6527383804321288,0
0.9485149383544922,0.6527383804321288,0
0.9459783554077148,0.6455423355102539,0
0.9656238555908203,0.6455423355102539,0
0.9517610549926757,0.6561670303344727,0
0.9381752014160156,0.6561670303344727,0
0.9433473587036132,0.6511213302612304,0
0.9433902740478515,0.6511213302612304,0
0.9554758071899414,0.6418996810913086,0
0.9516963958740234,0.6418996810913086,0
0.9454713821411133,0.6437461853027343,0
0.9412788391113280,0.6437461853027343,0
0.9379171371459960,0.6342664718627929,0
0.9568164825439452,0.6342664718627929,0
0.9424375534057616,0.6437524795532227,0
0.9284729003906249,0.6437524795532227,0
0.9338550567626953,0.6384922027587890,0
0.9340347290039062,0.6384922027587890,0
0.9467662811279296,0.6310386657714844,0
0.9440786361694335,0.6310386657714844,0
0.9388217926025391,0.6356786727905274,0
0.9358154296875000,0.6356786727905274,0
0.9337491989135742,0.6293392181396484,0
0.9538976669311523,0.6293392181396484,0
0.9407793045043945,0.6420387268066406,0
0.9279973983764648,0.6420387268066406,0
0.9344141006469726,0.6393173217773437,0
0.9355854034423827,0.6393173217773437,0
0.9488468170166016,0.6340084075927734,0
0.9470088958740234,0.6340084075927734,0
0.9423048019409179,0.6401493072509765,0
0.9397270202636718,0.6401493072509765,0
0.9381002426147460,0.6348197937011718,0
0.9584495544433593,0.6348197937011718,0
0.9454090118408203,0.6482425689697265,0
0.9327610015869140,0.6482425689697265,0
0.9392904281616210,0.6456510543823242,0
0.9409893035888671,0.6405406951904297,0
0.9470163345336914,0.6466346740722656,0
0.9442388534545898,0.6466346740722656,0
0.9425937652587890,0.6410751342773438,0
0.9627347946166992,0.6410751342773438,0
0.9495031356811523,0.6539869308471680,0
0.9366348266601562,0.6539869308471680,0
0.9429616928100586,0.6505073547363281,0
0.9436203002929687,0.6505073547363281,0
0.9566179275512695,0.6447366714477539,0
0.9548246383666992,0.6447366714477539,0
0.9497663497924804,0.6501789093017578,0
0.9467319488525390,0.6501789093017578,0
0.9448230743408202,0.6436872482299805,0
0.9645984649658202,0.6436872482299805,0
0.9510623931884765,0.6560743331909179,0
0.9379955291748047,0.6560743331909179,0
0.9439928054809570,0.6517679214477539,0
0.9444202423095702,0.6517679214477539,0
0.9572244644165039,0.6456693649291992,0
0.9553825378417968,0.6456693649291992,0
0.9502985000610351,0.6507619857788086,0
0.9472034454345702,0.6507619857788086,0
0.9453237533569335,0.6441879272460938,0
0.9652267456054687,0.6441879272460938,0
0.9516494750976562,0.6567146301269531,0
0.9385202407836913,0.6567146301269531,0
0.9446760177612304,0.6522932052612305,0
0.9450061798095702,0.6522932052612305,0
0.9579883575439453,0.6462135314941406,0
0.9561956405639648,0.6462135314941406,0
0.9509462356567382,0.6514102935791015,0
0.9476331710815429,0.6514102935791015,0
0.9457437515258789,0.6447383880615234,0
0.9654533386230468,0.6447383880615234,0
0.9518165588378906,0.6572193145751953,0
0.9386014938354492,0.6572193145751953,0
0.9449283599853515,0.6526851654052734,0
0.9451681137084961,0.6526851654052734,0
0.9580804824829101,0.6468772888183594,0
0.9565349578857422,0.6468772888183594,0
0.9512598037719726,0.6521656036376953,0
0.9480514526367188,0.6521656036376953,0
0.9464624404907226,0.6457397460937500,0
0.9661714553833007,0.6457397460937500,0
0.9526021957397460,0.6584295272827149,0
0.9395009994506835,0.6584295272827149,0
0.9458158493041992,0.6537317276000977,0
0.9459617614746093,0.6537317276000977,0
0.9585519790649414,0.6472417831420898,0
0.9568874359130859,0.6472417831420898,0
0.9512792587280273,0.6513113021850586,0
0.9474437713623046,0.6513113021850586,0
0.9453477859497070,0.6429182052612304,0
0.9640371322631835,0.6429182052612304,0
0.9493509292602539,0.6526170730590820,0
0.9348758697509765,0.6526170730590820,0
0.9399942398071288,0.6444368362426758,0
0.9387416839599609,0.6444368362426758,0
0.9503156661987304,0.6353971481323242,0
0.9479507446289062,0.6353971481323242,0
0.9414642333984374,0.6378753662109374,0
0.9374479293823241,0.6378753662109374,0
0.9356277465820312,0.6295417785644531,0
0.9545413970947265,0.6295417785644531,0
0.9402334213256835,0.6409646987915039,0
0.9264295578002929,0.6409646987915039,0
0.9325281143188476,0.6350904464721679,0
0.9322849273681640,0.6350904464721679,0
0.9450496673583983,0.6293998718261719,0
0.9441444396972656,0.6293998718261719,0
0.9390420913696289,0.6352397918701171,0
0.9360877990722656,0.6352397918701171,0
0.9351768493652344,0.6295583724975585,0
0.9548194885253906,0.6295583724975585,0
0.9415643692016601,0.6432580947875977,0
0.9287086486816406,0.6432580947875977,0
0.9355539321899413,0.6390197753906249,0
0.9358663558959961,0.6390197753906249,0
0.9489017486572265,0.6346784591674804,0
0.9485183715820312,0.6346784591674804,0
0.9437530517578124,0.6413881301879882,0
0.9409852981567383,0.6413881301879882,0
0.9404417037963867,0.6362297058105468,0
0.9602434158325195,0.6362297058105468,0
0.9469848632812500,0.6503036499023437,0
0.9341909408569335,0.6503036499023437,0
0.9409967422485351,0.6460830688476562,0
0.9411397933959961,0.6460830688476562,0
0.9540910720825195,0.6415431976318359,0
0.9536865234374999,0.6415431976318359,0
0.9486385345458984,0.6478460311889648,0
0.9455629348754883,0.6478460311889648,0
0.9448059082031249,0.6421228408813476,0
0.9642946243286132,0.6421228408813476,0
0.9507070541381836,0.6555364608764648,0
0.9485475540161132,0.6555364608764648,0
0.9441341400146483,0.6502864837646484,0
0.9438892364501953,0.6502864837646484,0
0.9565704345703124,0.6449838638305664,0
0.9559827804565429,0.6449838638305664,0
0.9507637023925781,0.6506292343139648,0
0.9475587844848632,0.6506292343139648,0
0.9465734481811523,0.6441621780395508,0
0.9658710479736328,0.6441621780395508,0
0.9520992279052733,0.6571460723876953,0
0.9386621475219726,0.6571460723876953,0
0.9451509475708008,0.6513038635253906,0
0.9446056365966796,0.6513038635253906,0
0.9570842742919922,0.6457597732543945,0
0.9565263748168945,0.6457597732543945,0
0.9511327743530273,0.6511201858520508,0
0.9477201461791992,0.6511201858520508,0
0.9469854354858398,0.6445850372314453,0
0.9660547256469726,0.6445850372314453,0
0.9522554397583007,0.6576381683349609,0
0.9388664245605468,0.6576381683349609,0
0.9454467773437499,0.6516786575317383,0
0.9447956085205078,0.6516786575317383,0
0.9572067260742188,0.6462673187255860,0
0.9567781448364258,0.6462673187255860,0
0.9515327453613280,0.6517267227172852,0
0.9479621887207030,0.6517267227172852,0
0.9472835540771484,0.6451841354370117,0
0.9661617279052734,0.6451841354370117,0
0.9523590087890624,0.6583133697509765,0
0.9388372421264648,0.6583133697509765,0
0.9453958511352538,0.6522977828979492,0
0.9446891784667968,0.6522977828979492,0
0.9571208953857422,0.6470415115356445,0
0.9569200515747069,0.6470415115356445,0
0.9515813827514648,0.6526325225830077,0
0.9482208251953125,0.6526325225830077,0
0.9476028442382812,0.6459629058837890,0
0.9664695739746093,0.6459629058837890,0
0.9525924682617187,0.6587659835815429,0
0.9388910293579101,0.6587659835815429,0
0.9451726913452148,0.6514194488525390,0
0.9439384460449218,0.6514194488525390,0
0.9556646347045898,0.6443956375122070,0
0.9546867370605469,0.6443956375122070,0
0.9483810424804687,0.6469448089599609,0
0.9438451766967773,0.6469448089599609,0
0.9419168472290038,0.6370153427124023,0
0.9594406127929687,0.6370153427124023,0
0.9443727493286133,0.6469339370727539,0
0.9296081542968749,0.6469339370727539,0
0.9350206375122070,0.6374153137207031,0
0.9331003189086914,0.6374153137207031,0
0.9447269439697266,0.6297924041748046,0
0.9439767837524413,0.6297924041748046,0
0.9380069732666015,0.6339643478393554,0
0.9342287063598632,0.6339643478393554,0
0.9334602355957031,0.6266555786132812,0
0.9521467208862304,0.6266555786132812,0
0.9382656097412109,0.6399547576904296,0
0.9247507095336913,0.6399547576904296,0
0.9316057205200194,0.6337863922119140,0
0.9308658599853515,0.6337863922119140,0
0.9434543609619140,0.6290124893188477,0
0.9440019607543945,0.6290124893188477,0
0.9387823104858398,0.6355316162109375,0
0.9357021331787109,0.6355316162109375,0
0.9356706619262695,0.6300247192382812,0
0.9548360824584960,0.6300247192382812,0
0.9414579391479492,0.6446605682373047,0
0.9283813476562499,0.6446605682373047,0
0.9355293273925781,0.6391925811767578,0
0.9350446701049804,0.6391925811767578,0
0.9479118347167969,0.6353204727172851,0
0.9486419677734375,0.6353204727172851,0
0.9437742233276367,0.6424587249755859,0
0.9409263610839843,0.6424587249755859,0
0.9410671234130858,0.6372173309326171,0
0.9602817535400390,0.6372173309326171,0
0.9469562530517578,0.6520534515380859,0
0.9339437484741211,0.6520534515380859,0
0.9410631179809570,0.6463251113891602,0
0.9404663085937499,0.6463251113891602,0
0.9531612396240234,0.6420759201049805,0
0.9539216995239257,0.6420759201049805,0
0.9487226486206054,0.6485092163085937,0
0.9455286026000976,0.6485092163085937,0
0.9453226089477539,0.6424970626831055,0
0.9641418457031250,0.6424970626831055,0
0.9505102157592773,0.6564188003540039,0
0.9370393753051758,0.6564188003540039,0
0.9438909530639648,0.6496381759643555,0
0.9427865982055663,0.6496381759643555,0
0.9550912857055663,0.6446508407592774,0
0.9556703567504883,0.6446508407592774,0
0.9502367019653319,0.6504507064819336,0
0.9467708587646484,0.6504507064819336,0
0.9465803146362304,0.6439018249511719,0
0.9650962829589843,0.6439018249511719,0
0.9513124465942382,0.6574899673461914,0
0.9377328872680664,0.6574899673461914,0
0.9445610046386719,0.6503625869750976,0
0.9432992935180664,0.6503625869750976,0
0.9555799484252929,0.6451858520507813,0
0.9563238143920898,0.6451858520507813,0
0.9508277893066406,0.6510629653930664,0
0.9473230361938476,0.6510629653930664,0
0.9470809936523437,0.6445484161376953,0
0.9656267166137695,0.6445484161376953,0
0.9519550323486328,0.6583293914794922,0
0.9383159637451172,0.6583293914794922,0
0.9452939987182617,0.6512357711791992,0
0.9439058303833008,0.6512357711791992,0
0.9561824798583984,0.6461391448974609,0
0.9570356369018554,0.6461391448974609,0
0.9514863967895507,0.6521776199340820,0
0.9480932235717773,0.6521776199340820,0
0.9479616165161132,0.6456539154052734,0
0.9663848876953125,0.6456539154052734,0
0.9498767852783203,0.6491306304931640,0
0.9462209701538086,0.6581897735595703,0
0.9462209701538086,0.6525100708007813,0
0.9444837570190430,0.6530015945434570,0
0.9454839706420898,0.6531686782836914,0
0.9535669326782226,0.6531686782836914,0
0.9534559249877930,0.6534238815307617,0
0.9454061508178710,0.6534238815307617,0
0.9585393905639648,0.6517896652221680,0
0.9491912841796875,0.6517896652221680,0
0.9484285354614257,0.6461614608764649,0
0.9636091232299804,0.6461614608764649,0
0.9487735748291015,0.6469093322753906,0
0.9394901275634765,0.6469093322753906,0
0.9391284942626953,0.6436872482299805,0
0.9458576202392578,0.6436872482299805,0
0.9446783065795898,0.6406208038330078,0
0.9357433319091797,0.6406208038330078,0
0.9478208541870117,0.6369071960449219,0
0.9379909515380859,0.6369071960449219,0
0.9371360778808593,0.6308446884155273,0
0.9526708602905273,0.6308446884155273,0
0.9383960723876953,0.6333961486816406,0
0.9298210144042969,0.6333961486816406,0
0.9306043624877929,0.6332353591918946,0
0.9385980606079101,0.6332353591918946,0
0.9388000488281250,0.6333028793334960,0
0.9312944412231445,0.6333028793334960,0
0.9445129394531250,0.6331701278686523,0
0.9358406066894531,0.6331701278686523,0
0.9358835220336914,0.6297632217407226,0
0.9524511337280273,0.6297632217407226,0
0.9390340805053711,0.6345932006835937,0
0.9310644149780273,0.6345932006835937,0
0.9324811935424804,0.6363063812255859,0
0.9409652709960937,0.6363063812255859,0
0.9418436050415039,0.6374462127685546,0
0.9349605560302734,0.6374462127685546,0
0.9481739044189452,0.6383646011352538,0
0.9399415969848632,0.6383646011352538,0
0.9401453018188476,0.6357118606567382,0
0.9570940017700195,0.6357118606567382,0
0.9437770843505859,0.6412536621093750,0
0.9359338760375976,0.6412536621093750,0
0.9376007080078125,0.6435052871704101,0
0.9461528778076171,0.6435052871704101,0
0.9472755432128905,0.6446073532104492,0
0.9404325485229492,0.6446073532104492,0
0.9533334732055664,0.6456373214721679,0
0.9450359344482422,0.6456373214721679,0
0.9450742721557617,0.6426229476928711,0
0.9619451522827148,0.6426229476928711,0
0.9486110687255859,0.6476795196533203,0
0.9404148101806640,0.6476795196533203,0
0.9418521881103515,0.6494607925415039,0
0.9500238418579101,0.6494607925415039,0
0.9510950088500976,0.6494979858398438,0
0.9440454483032226,0.6494979858398438,0
0.9562654495239258,0.6496891021728516,0
0.9477716445922851,0.6496891021728516,0
0.9474054336547851,0.6456962585449219,0
0.9640033721923827,0.6456962585449219,0
0.9504026412963866,0.6501085281372070,0
0.9418006896972656,0.6501085281372070,0
0.9430652618408203,0.6514154434204101,0
0.9511362075805664,0.6514154434204101,0
0.9522016525268554,0.6507596969604492,0
0.9451183319091796,0.6507596969604492,0
0.9569601058959960,0.6506669998168945,0
0.9486024856567382,0.6506669998168945,0
0.9481241226196289,0.6465351104736328,0
0.9648210525512695,0.6465351104736328,0
0.9511047363281250,0.6508810043334960,0
0.9424158096313476,0.6508810043334960,0
0.9438560485839843,0.6524013519287110,0
0.9518142700195312,0.6524013519287110,0
0.9531721115112304,0.6514932632446289,0
0.9460859298706055,0.6514932632446289,0
0.9576473236083984,0.6515361785888671,0
0.9492456436157226,0.6515361785888671,0
0.9488142013549804,0.6474615097045898,0
0.9656106948852539,0.6474615097045898,0
0.9520425796508789,0.6520500183105469,0
0.9432615280151366,0.6520500183105469,0
0.9448270797729492,0.6538375854492188,0
0.9528024673461913,0.6538375854492188,0
0.9543771743774414,0.6528585433959960,0
0.9475330352783202,0.6528585433959960,0
0.9588266372680664,0.6532104492187499,0
0.9506795883178710,0.6532104492187499,0
0.9500930786132812,0.6490013122558593,0
0.9670509338378905,0.6490013122558593,0
0.9535234451293945,0.6535737991333007,0
0.9446313858032226,0.6535737991333007,0
0.9460653305053710,0.6550586700439452,0
0.9537866592407226,0.6550586700439452,0
0.9551862716674804,0.6526113510131836,0
0.9476697921752929,0.6526113510131836,0
0.9578104019165039,0.6508438110351562,0
0.9487003326416015,0.6508438110351562,0
0.9467966079711914,0.6433891296386719,0
0.9429307937622070,0.6499225616455078,0
0.9501892089843750,0.6315387725830078,0
0.9512083053588867,0.6366971969604492,0
0.9389047622680664,0.6394987106323242,0
0.9446720123291015,0.6377237319946288,0
0.9375852584838866,0.6354818344116211,0
0.9408285140991210,0.6422767639160156,0
0.9332897186279296,0.6326940536499023,0
0.9389734268188477,0.6326940536499023,0
0.9310953140258789,0.6458553314208985,0
0.9388446807861328,0.6350830078124999,0
0.9410167694091797,0.6331953048706055,0
0.9445140838623046,0.6338510513305664,0
0.9401475906372070,0.6418842315673828,0
0.9340106964111328,0.6342052459716797,0
0.9404491424560546,0.6342052459716797,0
0.9336519241333008,0.6496564865112304,0
0.9418104171752929,0.6390071868896484,0
0.9385042190551758,0.6379400253295898,0
0.9398351669311523,0.6322940826416016,0
0.9446010589599609,0.6480194091796875,0
0.9407838821411132,0.6447040557861328,0
0.9455904006958007,0.6424861907958984,0
0.9497703552246093,0.6321699142456054,0
0.9471920013427734,0.6463308334350586,0
0.9502618789672851,0.6452362060546875,0
0.9452642440795898,0.6394397735595703,0
0.9497360229492187,0.6551158905029296,0
0.9457798004150391,0.6551158905029296,0
0.9501605987548828,0.6450279235839843,0
0.9410133361816406,0.6487529754638671,0
0.9508975982666015,0.6519115447998046,0
0.9511745452880859,0.6500209808349610,0
0.9484880447387695,0.6435213088989258,0
0.9563673019409179,0.6457878112792969,0
0.9478792190551757,0.6458398818969726,0
0.9460973739624023,0.6458398818969726,0
0.9556297302246093,0.6399467468261718,0
0.9525924682617187,0.6472692489624023,0
0.9489784240722656,0.6514886856079102,0
0.9651586532592773,0.6446857452392578,0
0.9573205947875976,0.6515596389770507,0
0.9485383987426758,0.6466838836669921,0
0.9468704223632812,0.6547433853149414,0
0.9562671661376952,0.6455429077148437,0
0.9450839996337890,0.6455429077148437,0
0.9558958053588866,0.6400211334228515,0
0.9493783950805663,0.6516363143920898,0
0.9575643539428711,0.6523790359497070,0
0.9487495422363281,0.6564039230346680,0
0.9660856246948242,0.6474981307983398,0
0.9434131622314452,0.6525735855102539,0
0.9565515518188477,0.6465505599975586,0
0.9535406112670898,0.6533048629760742,0
0.9564720153808594,0.6533048629760742,0
0.9579299926757812,0.6466650009155274,0
0.9579299926757812,0.6535320281982422,0
0.9494121551513671,0.6488193511962891,0
0.9481458663940430,0.6568382263183593,0
0.9574047088623047,0.6428237915039062,0
0.9611120223999023,0.6476428985595702,0
0.9501651763916015,0.6537179946899414,0
0.9568742752075194,0.6523681640625000,0
0.9567747116088867,0.6512323379516601,0
0.9523527145385742,0.6460178375244140,0
0.9436288833618164,0.6493452072143554,0
0.9393945693969726,0.6456001281738281,0
0.9499792098999023,0.6366559982299804,0
0.9377843856811523,0.6541494369506836,0
0.9462615966796875,0.6258504867553710,0
0.9387823104858398,0.6373741149902343,0
0.9375291824340820,0.6356992721557617,0
0.9409652709960937,0.6428403854370117,0
0.9338527679443359,0.6330047607421875,0
0.9393831253051758,0.6330047607421875,0
0.9316755294799804,0.6272489547729492,0
0.9316755294799804,0.6368659973144531,0
0.9429862976074218,0.6331890106201171,0
0.9369678497314453,0.6452053070068359,0
0.9406934738159179,0.6308498382568359,0
0.9275493621826172,0.6426086425781250,0
0.9323089599609374,0.6347190856933593,0
0.9410236358642577,0.6360025405883789,0
0.9342355728149414,0.6407867431640625,0
0.9426401138305663,0.6407867431640625,0
0.9407609939575194,0.6378782272338867,0
0.9407609939575194,0.6326316833496094,0
0.9449718475341796,0.6487724304199218,0
0.9402660369873046,0.6457723617553711,0
0.9461208343505859,0.6393573760986327,0
0.9364912033081054,0.6430028915405274,0
0.9470586776733398,0.6482196807861328,0
0.9480720520019531,0.6457225799560546,0
0.9461053848266601,0.6399908065795898,0
0.9527732849121093,0.6557229995727539,0
0.9451612472534179,0.6524871826171875,0
0.9504844665527343,0.6478122711181641,0
0.9504844665527343,0.6489406585693359,0
0.9434818267822265,0.6535800933837891,0
0.9515401840209960,0.6467536926269531,0
0.9490734100341797,0.6617757797241210,0
0.9631536483764648,0.6439023971557617,0
0.9391754150390624,0.6587047576904297,0
0.9471118927001952,0.6456012725830078,0
0.9520889282226562,0.6509725570678710,0
0.9551210403442383,0.6402694702148437,0
0.9526891708374023,0.6480794906616211,0
0.9526891708374023,0.6517169952392577,0
0.9499597549438477,0.6449478149414062,0
0.9558929443359374,0.6464550018310546,0
0.9479043960571288,0.6562940597534179,0
0.9655998229980468,0.6465431213378906,0
0.9529466629028320,0.6519458770751952,0
0.9455446243286132,0.6562723159790039,0
0.9535423278808594,0.6491374969482422,0
0.9507539749145507,0.6640090942382812,0
0.9644010543823242,0.6459611892700196,0
0.9408308029174804,0.6606708526611328,0
0.9485996246337890,0.6475559234619140,0
0.9535200119018554,0.6530364990234375,0
0.9564079284667968,0.6530364990234375,0
0.9540018081665038,0.6573812484741210,0
0.9540018081665038,0.6538021087646484,0
0.9514354705810546,0.6470832824707031,0
0.9569984436035156,0.6484045028686524,0
0.9490642547607422,0.6487775802612304,0
0.9670257568359375,0.6487775802612304,0
0.9573497772216797,0.6543725967407227,0
0.9573497772216797,0.6483140945434570,0
0.9550088882446288,0.6549104690551758,0
0.9589548110961914,0.6421937942504883,0
0.9570590972900390,0.6479541778564453,0
0.9506132125854492,0.6534645080566406,0
0.9648582458496093,0.6461814880371094,0
0.9467863082885741,0.6496707916259765,0
0.9527206420898438,0.6363178253173828,0
0.9570728302001953,0.6409727096557617,0
0.9427843093872070,0.6440477371215820,0
0.9506750106811523,0.6410144805908203,0
0.9464670181274414,0.6387823104858398,0
0.9432369232177734,0.6331226348876953,0
0.9358491897583008,0.6378330230712891,0
0.9319038391113281,0.6347843170166015,0
0.9488124847412109,0.6284608840942383,0
0.9329303741455077,0.6387920379638672,0
0.9448396682739257,0.6332651138305664,0
0.9379074096679687,0.6332651138305664,0
0.9411123275756835,0.6424404144287109,0
0.9324663162231445,0.6321784973144531,0
0.9428066253662108,0.6380132675170899,0
0.9464538574218749,0.6340009689331054,0
0.9398357391357421,0.6456808090209961,0
0.9581165313720703,0.6354349136352538,0
0.9492033004760742,0.6425628662109375,0
0.9492033004760742,0.6329692840576172,0
0.9492033004760742,0.6374610900878906,0
0.9482465744018554,0.6490413665771484,0
0.9534610748291015,0.6448213577270507,0
0.9482425689697265,0.6448213577270507,0
0.9520380020141601,0.6473098754882812,0
0.9471164703369140,0.6473098754882812,0
0.9454273223876952,0.6428678512573242,0
0.9635513305664062,0.6428678512573242,0
0.9513507843017578,0.6493137359619140,0
0.9407169342041015,0.6493137359619140,0
0.9448167800903320,0.6550518035888672,0
0.9507814407348633,0.6550518035888672,0
0.9574407577514648,0.6496107101440429,0
0.9519533157348632,0.6496107101440429,0
0.9550838470458984,0.6512769699096680,0
0.9498882293701172,0.6512769699096680,0
0.9479988098144531,0.6459285736083984,0
0.9658779144287108,0.6459285736083984,0
0.9532413482666016,0.6517078399658203,0
0.9421669006347656,0.6517078399658203,0
0.9460533142089843,0.6568828582763672,0
0.9516403198242187,0.6568828582763672,0
0.9583946228027344,0.6508237838745117,0
0.9526731491088867,0.6508237838745117,0
0.9553791046142578,0.6520763397216797,0
0.9502275466918945,0.6520763397216797,0
0.9481676101684570,0.6464263916015625,0
0.9660867691040038,0.6464263916015625,0
0.9536046981811523,0.6522228240966796,0
0.9424461364746093,0.6522228240966796,0
0.9466798782348632,0.6576278686523437,0
0.9521100997924804,0.6576278686523437,0
0.9590171813964843,0.6515533447265625,0
0.9534461975097656,0.6515533447265625,0
0.9559627532958984,0.6529867172241210,0
0.9509284973144531,0.6529867172241210,0
0.9488920211791991,0.6474403381347656,0
0.9668369293212891,0.6474403381347656,0
0.9543405532836914,0.6533391952514648,0
0.9431659698486328,0.6533391952514648,0
0.9473825454711914,0.6589056015014648,0
0.9528774261474608,0.6589056015014648,0
0.9599996566772461,0.6527572631835937,0
0.9544446945190429,0.6527572631835937,0
0.9566465377807617,0.6542215347290039,0
0.9516695022583007,0.6542215347290039,0
0.9496284484863281,0.6486139297485352,0
0.9674669265747070,0.6486139297485352,0
0.9549373626708983,0.6545242309570313,0
0.9435802459716797,0.6545242309570313,0
0.9479370117187500,0.6601507186889648,0
0.9533065795898437,0.6601507186889648,0
0.9606576919555664,0.6537672042846679,0
0.9550729751586914,0.6537672042846679,0
0.9568599700927733,0.6549688339233398,0
0.9519207000732421,0.6549688339233398,0
0.9496845245361327,0.6485149383544921,0
0.9672586441040039,0.6485149383544921,0
0.9543210983276367,0.6529237747192382,0
0.9422739028930663,0.6529237747192382,0
0.9458324432373046,0.6562477111816406,0
0.9498373031616211,0.6562477111816406,0
0.9561309814453125,0.6464447021484375,0
0.9494665145874023,0.6464447021484375,0
0.9499620437622069,0.6444276809692383,0
0.9439172744750977,0.6444276809692383,0
0.9406562805175781,0.6354194641113281,0
0.9574230194091796,0.6354194641113281,0
0.9439853668212890,0.6386146545410156,0
0.9316703796386718,0.6386146545410156,0
0.9354475021362304,0.6424673080444335,0
0.9400714874267577,0.6424673080444335,0
0.9473052978515625,0.6347499847412109,0
0.9416902542114257,0.6347499847412109,0
0.9429193496704101,0.6358348846435546,0
0.9382352828979492,0.6358348846435546,0
0.9362628936767577,0.6301465988159179,0
0.9542798995971680,0.6301465988159179,0
0.9420118331909180,0.6365060806274414,0
0.9306701660156249,0.6365060806274414,0
0.9355516433715820,0.6429296493530273,0
0.9407220840454101,0.6429296493530273,0
0.9488925933837891,0.6370061874389649,0
0.9439218521118163,0.6370061874389649,0
0.9454828262329101,0.6396657943725585,0
0.9413543701171875,0.6396657943725585,0
0.9418773651123047,0.6350921630859375,0
0.9418773651123047,0.6411426544189452,0
0.9381397247314452,0.6411426544189452,0
0.9484994888305663,0.6337869644165038,0
0.9484994888305663,0.6379772186279297,0
0.9482706069946288,0.6453008651733398,0
0.9451074600219727,0.6453008651733398,0
0.9466100692749023,0.6400880813598633,0
0.9583007812500000,0.6400880813598633,0
0.9503786087036132,0.6542186737060547,0
0.9386827468872070,0.6542186737060547,0
0.9474088668823242,0.6484754562377929,0
0.9514297485351562,0.6484754562377929,0
0.9534725189208983,0.6448774337768555,0
0.9619491577148437,0.6448774337768555,0
0.9527292251586914,0.6513072967529296,0
0.9493394851684570,0.6513072967529296,0
0.9504615783691406,0.6450508117675781,0
0.9616327285766602,0.6450508117675781,0
0.9536384582519530,0.6582092285156250,0
0.9416147232055664,0.6582092285156250,0
0.9502275466918945,0.6517095565795898,0
0.9459011077880859,0.6517095565795898,0
0.9555072784423828,0.6473470687866211,0
0.9637561798095703,0.6473470687866211,0
0.9540052413940430,0.6530456542968750,0
0.9503477096557617,0.6530456542968750,0
0.9512151718139648,0.6461814880371094,0
0.9620950698852538,0.6461814880371094,0
0.9540040969848632,0.6587419509887695,0
0.9418144226074219,0.6587419509887695,0
0.9504798889160155,0.6521118164062499,0
0.9459651947021483,0.6521118164062499,0
0.9553213119506836,0.6477281570434570,0
0.9637607574462890,0.6477281570434570,0
0.9540618896484374,0.6533494949340820,0
0.9504426956176757,0.6533494949340820,0
0.9512826919555664,0.6466203689575195,0
0.9621259689331054,0.6466203689575195,0
0.9542758941650390,0.6592947006225586,0
0.9422647476196289,0.6592947006225586,0
0.9510606765747069,0.6528573989868164,0
0.9465780258178711,0.6528573989868164,0
0.9558237075805663,0.6486488342285156,0
0.9644977569580078,0.6486488342285156,0
0.9546014785766601,0.6543439865112305,0
0.9510257720947265,0.6543439865112305,0
0.9519664764404296,0.6478466033935547,0
0.9626575469970703,0.6478466033935547,0
0.9551279067993164,0.6603384017944336,0
0.9430412292480468,0.6603384017944336,0
0.9521118164062500,0.6540727615356445,0
0.9476440429687499,0.6540727615356445,0
0.9565664291381836,0.6501731872558594,0
0.9653944015502929,0.6501731872558594,0
0.9555656433105468,0.6556411743164062,0
0.9520408630371093,0.6556411743164062,0
0.9528551101684570,0.6492347717285156,0
0.9563627243041992,0.6492347717285156,0
0.9560503005981444,0.6614227294921875,0
0.9439910888671874,0.6614227294921875,0
0.9531017303466797,0.6547840118408202,0
0.9483249664306640,0.6547840118408202,0
0.9566379547119140,0.6497354507446289,0
0.9649669647216796,0.6497354507446289,0
0.9544441223144531,0.6532985687255859,0
0.9500530242919921,0.6532985687255859,0
0.9496902465820312,0.6441358566284180,0
0.9591064453125000,0.6441358566284180,0
0.9505348205566406,0.6529644012451171,0
0.9373512268066406,0.6529644012451171,0
0.9455469131469726,0.6436815261840820,0
0.9397567749023437,0.6436815261840820,0
0.9472801208496093,0.6369300842285156,0
0.9551673889160156,0.6369300842285156,0
0.9442708969116210,0.6397745132446289,0
0.9400091171264648,0.6397745132446289,0
0.9402162551879882,0.6317533493041992,0
0.9502264022827148,0.6317533493041992,0
0.9426641464233398,0.6431253433227538,0
0.9306627273559570,0.6431253433227538,0
0.9400325775146484,0.6369129180908203,0
0.9354663848876953,0.6369129180908203,0
0.9440597534179687,0.6335008621215820,0
0.9532070159912109,0.6335008621215820,0
0.9433868408203124,0.6391181945800781,0
0.9401063919067383,0.6391181945800781,0
0.9410385131835937,0.6334115982055664,0
0.9517759323120116,0.6334115982055664,0
0.9450719833374023,0.6464595794677734,0
0.9336507797241210,0.6464595794677734,0
0.9437387466430663,0.6417840957641602,0
0.9395736694335937,0.6417840957641602,0
0.9483221054077148,0.6393539428710937,0
0.9580347061157226,0.6393539428710937,0
0.9484004974365234,0.6458393096923828,0
0.9453472137451171,0.6458393096923828,0
0.9464424133300781,0.6406568527221680,0
0.9571151733398438,0.6406568527221680,0
0.9506652832031249,0.6538032531738281,0
0.9392354965209960,0.6538032531738281,0
0.9493949890136718,0.6491352081298828,0
0.9450021743774414,0.6491352081298828,0
0.9534427642822265,0.6463216781616211,0
0.9629041671752929,0.6463216781616211,0
0.9530038833618164,0.6519899368286133,0
0.9496902465820312,0.6519899368286133,0
0.9502693176269531,0.6459503173828125,0
0.9605484008789062,0.6459503173828125,0
0.9538816452026366,0.6579803466796875,0
0.9421348571777344,0.6579803466796875,0
0.9522090911865234,0.6525461196899414,0
0.9474123001098632,0.6525461196899414,0
0.9553888320922851,0.6489286422729492,0
0.9647066116333007,0.6489286422729492,0
0.9544647216796874,0.6538833618164063,0
0.9509748458862304,0.6538833618164063,0
0.9513353347778319,0.6473659515380860,0
0.9614959716796875,0.6473659515380860,0
0.9547285079956054,0.6590269088745117,0
0.9488164901733398,0.6590269088745117,0
0.9529729843139648,0.6532768249511719,0
0.9480709075927733,0.6532768249511719,0
0.9558008193969726,0.6495941162109374,0
0.9651300430297851,0.6495941162109374,0
0.9548160552978515,0.6544206619262695,0
0.9512014389038086,0.6544206619262695,0
0.9515087127685546,0.6478076934814453,0
0.9615142822265624,0.6478076934814453,0
0.9548732757568359,0.6593381881713867,0
0.9430789947509766,0.6593381881713867,0
0.9532751083374023,0.6537712097167968,0
0.9483598709106444,0.6537712097167968,0
0.9559524536132812,0.6501789093017578,0
0.9653429031372069,0.6501789093017578,0
0.9551118850708007,0.6550529479980468,0
0.9515750885009765,0.6550529479980468,0
0.9517559051513671,0.6485303878784180,0
0.9617465972900390,0.6485303878784180,0
0.9554162979125976,0.6600637435913086,0
0.9436449050903319,0.6600637435913086,0
0.9541156768798827,0.6548189163208008,0
0.9491123199462890,0.6548189163208008,0
0.9565155029296875,0.6513084411621094,0
0.9660610198974608,0.6513084411621094,0
0.9559152603149413,0.6562105178833008,0
0.9523298263549804,0.6562105178833008,0
0.9525209426879883,0.6498149871826172,0
0.9624950408935546,0.6498149871826172,0
0.9562671661376952,0.6612333297729492,0
0.9446388244628906,0.6612333297729492,0
0.9551610946655273,0.6558351516723633,0
0.9500289916992187,0.6558351516723633,0
0.9569950103759766,0.6517702102661133,0
0.9663562774658203,0.6517702102661133,0
0.9556697845458983,0.6552331924438476,0
0.9514858245849609,0.6552331924438476,0
0.9508483886718749,0.6469144821166992,0
0.9598628997802734,0.6469144821166992,0
0.9528362274169921,0.6554609298706054,0
0.9399868011474609,0.6554609298706054,0
0.9496141433715820,0.6472417831420898,0
0.9433794021606445,0.6472417831420898,0
0.9494281768798828,0.6409549713134766,0
0.9580307006835938,0.6409549713134766,0
0.9468017578125000,0.6429542541503906,0
0.9422744750976562,0.6429542541503906,0
0.9416376113891601,0.6344661712646484,0
0.9506298065185547,0.6344661712646484,0
0.9442331314086914,0.6444894790649414,0
0.9322895050048827,0.6444894790649414,0
0.9429908752441406,0.6387823104858398,0
0.9378324508666992,0.6387823104858398,0
0.9444683074951171,0.6354045867919922,0
0.9543668746948242,0.6354045867919922,0
0.9440048217773437,0.6402688980102539,0
0.9406024932861328,0.6402688980102539,0
0.9406785964965820,0.6342481613159180,0
0.9506458282470702,0.6342481613159180,0
0.9450365066528320,0.6462432861328125,0
0.9338104248046875,0.6462432861328125,0
0.9451652526855469,0.6423208236694335,0
0.9404108047485351,0.6423208236694335,0
0.9474557876586913,0.6402408599853515,0
0.9577869415283202,0.6402408599853515,0
0.9478317260742187,0.6460956573486328,0
0.9447704315185547,0.6460956573486328,0
0.9452585220336913,0.6410099029541015,0
0.9553436279296874,0.6410099029541015,0
0.9500701904296874,0.6533432006835938,0
0.9389991760253906,0.6533432006835938,0
0.9505960464477539,0.6495609283447266,0
0.9456916809082031,0.6495609283447266,0
0.9525003433227539,0.6471971511840821,0
0.9627685546875000,0.6471971511840821,0
0.9524888992309570,0.6522205352783202,0
0.9491523742675780,0.6522205352783202,0
0.9490665435791015,0.6462856292724609,0
0.9586629867553711,0.6462856292724609,0
0.9532350540161132,0.6575540542602539,0
0.9473659515380859,0.6575540542602539,0
0.9479862213134765,0.6529655456542969,0
0.9537654876708984,0.6529655456542969,0
0.9544612884521484,0.6499511718750000,0
0.9645698547363281,0.6499511718750000,0
0.9540813446044921,0.6544515609741210,0
0.9505147933959961,0.6544515609741210,0
0.9501886367797852,0.6478294372558594,0
0.9597192764282226,0.6478294372558594,0
0.9541849136352538,0.6586755752563477,0
0.9425937652587890,0.6586755752563477,0
0.9540481567382812,0.6537357330322265,0
0.9486293792724609,0.6537357330322265,0
0.9546586990356445,0.6505468368530273,0
0.9647930145263671,0.6505468368530273,0
0.9542329788208007,0.6547101974487305,0
0.9505954742431640,0.6547101974487305,0
0.9502275466918945,0.6481224060058594,0
0.9595315933227538,0.6481224060058594,0
0.9542346954345703,0.6587940216064453,0
0.9426584243774414,0.6587940216064453,0
0.9543216705322265,0.6540830612182617,0
0.9487157821655273,0.6540830612182617,0
0.9546661376953125,0.6508907318115235,0
0.9648771286010742,0.6508907318115235,0
0.9543302536010742,0.6551530838012695,0
0.9506441116333008,0.6551530838012695,0
0.9501279830932616,0.6486196517944336,0
0.9594480514526367,0.6486196517944336,0
0.9542741775512695,0.6592025756835938,0
0.9427928924560547,0.6592025756835938,0
0.9546031951904297,0.6547931671142578,0
0.9489801406860351,0.6547931671142578,0
0.9548297882080078,0.6517427444458007,0
0.9651546478271484,0.6517427444458007,0
0.9546083450317382,0.6561126708984375,0
0.9510452270507812,0.6561126708984375,0
0.9506114959716796,0.6497920989990235,0
0.9599475860595703,0.6497920989990235,0
0.9550271987915039,0.6605054855346679,0
0.9435728073120117,0.6605054855346679,0
0.9558225631713867,0.6561235427856446,0
0.9501771926879883,0.6561235427856446,0
0.9557024002075195,0.6528533935546875,0
0.9659986495971680,0.6528533935546875,0
0.9552503585815429,0.6562952041625977,0
0.9513181686401366,0.6562952041625977,0
0.9501972198486328,0.6485212326049804,0
0.9587625503540038,0.6485212326049804,0
0.9532951354980468,0.6571260452270508,0
0.9410436630249023,0.6571260452270508,0
0.9524053573608398,0.6503849029541016,0
0.9457019805908202,0.6503849029541016,0
0.9501869201660156,0.6447240829467773,0
0.9595693588256835,0.6447240829467773,0
0.9481733322143554,0.6462638854980468,0
0.9436740875244141,0.6462638854980468,0
0.9420787811279296,0.6375446319580078,0
0.9503957748413085,0.6375446319580078,0
0.9452184677124023,0.6463565826416016,0
0.9332971572875977,0.6463565826416016,0
0.9453306198120117,0.6412485122680663,0
0.9394500732421874,0.6412485122680663,0
0.9445501327514648,0.6380527496337890,0
0.9551090240478515,0.6380527496337890,0
0.9446943283081054,0.6422813415527343,0
0.9411764144897461,0.6422813415527343,0
0.9405853271484375,0.6362646102905273,0
0.9498613357543945,0.6362646102905273,0
0.9456247329711913,0.6473688125610352,0
0.9345605850219726,0.6473688125610352,0
0.9474792480468750,0.6440912246704101,0
0.9420061111450195,0.6440912246704101,0
0.9474351882934570,0.6424295425415039,0
0.9584941864013672,0.6424295425415039,0
0.9483049392700195,0.6475227355957031,0
0.9452339172363281,0.6475227355957031,0
0.9448162078857422,0.6423391342163086,0
0.9542604446411133,0.6423391342163086,0
0.9502544403076172,0.6536796569824218,0
0.9392005920410156,0.6536796569824218,0
0.9522045135498046,0.6505571365356445,0
0.9467245101928711,0.6505571365356445,0
0.9519584655761718,0.6486385345458984,0
0.9627737045288085,0.6486385345458984,0
0.9524969100952148,0.6531429290771484,0
0.9490756988525391,0.6531429290771484,0
0.9484010696411133,0.6473047256469726,0
0.9574544906616210,0.6473047256469726,0
0.9532722473144530,0.6578035354614258,0
0.9419935226440429,0.6578035354614258,0
0.9550352096557617,0.6540121078491211,0
0.9491638183593749,0.6540121078491211,0
0.9539457321166992,0.6513439178466797,0
0.9646917343139648,0.6513439178466797,0
0.9542364120483398,0.6552881240844727,0
0.9505714416503905,0.6552881240844727,0
0.9495935440063477,0.6488708496093750,0
0.9584684371948242,0.6488708496093750,0
0.9543594360351562,0.6588031768798828,0
0.9428644180297852,0.6588031768798828,0
0.9559873580932616,0.6548452377319336,0
0.9499151229858398,0.6548452377319336,0
0.9543354034423828,0.6519241333007812,0
0.9651145935058594,0.6519241333007812,0
0.9546031951904297,0.6556251525878906,0
0.9507797241210937,0.6556251525878906,0
0.9496490478515625,0.6490814208984375,0
0.9583992004394530,0.6490814208984375,0
0.9543474197387695,0.6588678359985352,0
0.9428346633911132,0.6588678359985352,0
0.9559862136840820,0.6550374984741211,0
0.9498836517333984,0.6550374984741211,0
0.9542140960693359,0.6522331237792969,0
0.9650470733642578,0.6522331237792969,0
0.9545785903930664,0.6559844970703125,0
0.9508558273315429,0.6559844970703125,0
0.9496398925781250,0.6494916915893555,0
0.9583774566650390,0.6494916915893555,0
0.9544366836547851,0.6593587875366210,0
0.9428495407104491,0.6593587875366210,0
0.9561355590820312,0.6555816650390625,0
0.9499174118041992,0.6555816650390625,0
0.9540029525756836,0.6528459548950195,0
0.9648702621459960,0.6528459548950195,0
0.9544143676757812,0.6565343856811523,0
0.9507099151611328,0.6565343856811523,0
0.9495208740234374,0.6503637313842773,0
0.9582881927490234,0.6503637313842773,0
0.9546518325805664,0.6603286743164062,0
0.9431900024414062,0.6603286743164062,0
0.9568862915039062,0.6566036224365234,0
0.9506452560424804,0.6566036224365234,0
0.9546358108520507,0.6536384582519531,0
0.9654888153076171,0.6536384582519531,0
0.9547382354736328,0.6565950393676757,0
0.9505514144897460,0.6565950393676757,0
0.9487644195556640,0.6487815856933593,0
0.9567621231079101,0.6487815856933593,0
0.9523750305175781,0.6566888809204101,0
0.9402488708496093,0.6566888809204101,0
0.9530776977539062,0.6508409500122070,0
0.9502670288085937,0.6459297180175781,0
0.9410854339599609,0.6599842071533203,0
0.9426612854003906,0.6467136383056641,0
0.9542924880981445,0.6417200088500976,0
0.9441781997680664,0.6434131622314453,0
0.9444145202636718,0.6336519241333007,0
0.9461597442626952,0.6423831939697265,0
0.9439401626586914,0.6423831939697265,0
0.9367155075073241,0.6551668167114257,0
0.9392749786376953,0.6473602294921875,0
0.9517307281494141,0.6394077301025390,0
0.9434646606445312,0.6436351776123047,0
0.9445198059082031,0.6436351776123047,0
0.9478008270263671,0.6451766967773437,0
0.9417984008789062,0.6454524993896484,0
0.9575672149658203,0.6439807891845702,0
0.9398752212524414,0.6522325515747071,0
0.9557619094848633,0.6451028823852539,0
0.9432426452636719,0.6626953125000000,0
0.9492605209350585,0.6411369323730468,0
0.9382987976074219,0.6541133880615234,0
0.9508237838745117,0.6516477584838867,0
0.9385860443115234,0.6547084808349609,0
0.9441759109497070,0.6575077056884765,0
0.9596780776977538,0.6496994018554687,0
0.9467245101928711,0.6496994018554687,0
0.9522319793701172,0.6446737289428711,0
0.9409669876098632,0.6576856613159180,0
0.9488931655883789,0.6546844482421875,0
0.9530576705932616,0.6572942733764648,0
0.9460453033447265,0.6594966888427735,0
0.9532825469970703,0.6522834777832031,0
0.9481372833251953,0.6494636535644531,0
0.9524597167968749,0.6494636535644531,0
0.9469287872314452,0.6625551223754883,0
0.9665313720703125,0.6480194091796875,0
0.9538496017456054,0.6583368301391601,0
0.9464921951293945,0.6675745010375976,0
0.9487535476684570,0.6597478866577148,0
0.9571437835693359,0.6513004302978516,0
0.9525535583496093,0.6552852630615235,0
0.9534702301025391,0.6588912963867187,0
0.9564388275146484,0.6550094604492187,0
0.9498104095458983,0.6526605606079101,0
0.9526971817016601,0.6530542373657227,0
0.9497777938842773,0.6562059402465820,0
0.9615325927734375,0.6515796661376952,0
0.9525043487548828,0.6556938171386718,0
0.9533735275268554,0.6461133956909180,0
0.9564828872680664,0.6555084228515625,0
0.9498418807983398,0.6562088012695312,0
0.9644382476806640,0.6537998199462890,0
0.9466644287109375,0.6604974746704101,0
0.9619216918945312,0.6523601531982421,0
0.9485092163085938,0.6523601531982421,0
0.9538078308105469,0.6566408157348632,0
0.9538078308105469,0.6601192474365234,0
0.9570104598999023,0.6567197799682617,0
0.9540184020996093,0.6528322219848632,0
0.9462049484252929,0.6671127319335938,0
0.9477882385253906,0.6592803955078125,0
0.9554197311401367,0.6497062683105469,0
0.9461786270141601,0.6474958419799804,0
0.9500759124755859,0.6544389724731445,0
0.9425828933715820,0.6544389724731445,0
0.9477384567260742,0.6488359451293945,0
0.9477384567260742,0.6508867263793945,0
0.9387954711914062,0.6492004394531250,0
0.9450325012207030,0.6416587829589844,0
0.9383348464965819,0.6561407089233399,0
0.9383348464965819,0.6376470565795899,0
0.9431213378906249,0.6458381652832031,0
0.9363830566406249,0.6501829147338867,0
0.9434577941894531,0.6392543792724609,0
0.9308607101440429,0.6462209701538085,0
0.9402368545532226,0.6477905273437500,0
0.9452590942382812,0.6449460983276367,0
0.9402013778686523,0.6396944046020507,0
0.9452562332153320,0.6396944046020507,0
0.9402219772338867,0.6494916915893555,0
0.9402219772338867,0.6397968292236328,0
0.9481824874877929,0.6518360137939453,0
0.9472995758056640,0.6466896057128906,0
0.9492027282714843,0.6470884323120117,0
0.9457151412963867,0.6504993438720703,0
0.9530450820922851,0.6455492019653321,0
0.9495449066162109,0.6516111373901367,0
0.9444969177246093,0.6454456329345702,0
0.9551651000976562,0.6454456329345702,0
0.9396892547607422,0.6571901321411132,0
0.9510538101196289,0.6514875411987304,0
0.9525730133056640,0.6549161911010742,0
0.9606971740722656,0.6549161911010742,0
0.9521232604980469,0.6492536544799804,0
0.9521232604980469,0.6548566818237305,0
0.9465459823608398,0.6481304168701172,0
0.9570894241333008,0.6544624328613281,0
0.9523756027221679,0.6537511825561523,0
0.9645835876464843,0.6533529281616210,0
0.9496347427368164,0.6561864852905274,0
0.9615646362304687,0.6511590957641601,0
0.9529438018798828,0.6557361602783203,0
0.9537322998046874,0.6557361602783203,0
0.9578693389892577,0.6487386703491210,0
0.9578693389892577,0.6562099456787109,0
0.9529678344726562,0.6538307189941406,0
0.9472057342529296,0.6669582366943360,0
0.9620973587036132,0.6438686370849609,0
0.9582750320434570,0.6515562057495117,0
0.9506137847900390,0.6562362670898437,0
0.9542604446411133,0.6592071533203124,0
0.9584472656249999,0.6568107604980469,0
0.9548761367797851,0.6531749725341797,0
0.9477087020874023,0.6674509048461914,0
0.9493829727172851,0.6596906661987304,0
0.9588684082031249,0.6521564483642578,0
0.9490001678466796,0.6515247344970703,0
0.9482219696044921,0.6655820846557617,0
0.9663442611694335,0.6553796768188477,0
0.9494911193847656,0.6522811889648438,0
0.9550443649291992,0.6599824905395507,0
0.9482608795166015,0.6652959823608399,0
0.9545482635498046,0.6520271301269531,0
0.9410717010498046,0.6597444534301757,0
0.9468137741088867,0.6564456939697265,0
0.9522886276245117,0.6529855728149414,0
0.9516059875488281,0.6444974899291992,0
0.9484165191650390,0.6498968124389648,0
0.9409749984741210,0.6546752929687499,0
0.9464618682861328,0.6408451080322265,0
0.9330253601074219,0.6486499786376952,0
0.9393819808959960,0.6456218719482422,0
0.9448888778686523,0.6430732727050781,0
0.9387205123901367,0.6370296478271484,0
0.9469465255737304,0.6370296478271484,0
0.9335981369018554,0.6450805664062500,0
0.9382667541503906,0.6357387542724610,0
0.9456161499023437,0.6479753494262696,0
0.9443492889404297,0.6429485321044922,0
0.9464962005615234,0.6418138504028320,0
0.9464962005615234,0.6454021453857421,0
0.9412851333618164,0.6408536911010742,0
0.9470220565795898,0.6378610610961913,0
0.9421920776367188,0.6569452285766602,0
0.9629350662231445,0.6410745620727539,0
0.9377752304077148,0.6540390014648437,0
0.9439081192016601,0.6530296325683593,0
0.9511962890625000,0.6516981124877930,0
0.9459302902221679,0.6470432281494141,0
0.9463376998901367,0.6624132156372070,0
0.9666801452636719,0.6508123397827148,0
0.9519716262817383,0.6588787078857422,0
0.9466627120971679,0.6568553924560546,0
0.9480005264282226,0.6568553924560546,0
0.9612253189086913,0.6501096725463867,0
0.9580867767333984,0.6501096725463867,0
0.9530570983886718,0.6550821304321289,0
0.9500890731811523,0.6550821304321289,0
0.9472841262817382,0.6482254028320312,0
0.9673954010009765,0.6482254028320312,0
0.9540561676025390,0.6600597381591796,0
0.9409864425659179,0.6600597381591796,0
0.9467296600341797,0.6574190139770507,0
0.9479003906250000,0.6574190139770507,0
0.9610479354858398,0.6504341125488281,0
0.9579729080200194,0.6504341125488281,0
0.9528820037841796,0.6552629470825195,0
0.9499385833740234,0.6552629470825195,0
0.9473653793334961,0.6485298156738281,0
0.9674028396606444,0.6485298156738281,0
0.9541631698608398,0.6603418350219726,0
0.9411397933959961,0.6603418350219726,0
0.9470809936523437,0.6577239990234375,0
0.9480731964111327,0.6577239990234375,0
0.9611251831054687,0.6508913040161133,0
0.9581811904907226,0.6508913040161133,0
0.9530822753906250,0.6557687759399414,0
0.9501714706420898,0.6557687759399414,0
0.9476171493530273,0.6490957260131835,0
0.9677787780761719,0.6490957260131835,0
0.9544046401977538,0.6611085891723633,0
0.9414144515991211,0.6611085891723633,0
0.9473442077636718,0.6582492828369141,0
0.9483180999755859,0.6582492828369141,0
0.9614931106567383,0.6517353057861328,0
0.9586984634399414,0.6517353057861328,0
0.9536853790283203,0.6567615509033203,0
0.9507350921630859,0.6567615509033203,0
0.9483644485473632,0.6502550125122070,0
0.9684837341308593,0.6502550125122070,0
0.9551708221435546,0.6621917724609375,0
0.9421560287475585,0.6621917724609375,0
0.9480211257934570,0.6588798522949219,0
0.9487575531005858,0.6588798522949219,0
0.9615978240966796,0.6515041351318359,0
0.9585187911987304,0.6515041351318359,0
0.9529872894287109,0.6551118850708008,0
0.9493841171264648,0.6551118850708008,0
0.9463983535766601,0.6465940475463867,0
0.9657257080078124,0.6465940475463867,0
0.9512981414794921,0.6559450149536132,0
0.9372018814086913,0.6559450149536132,0
0.9420719146728516,0.6496204376220703,0
0.9418064117431640,0.6496204376220703,0
0.9538438796997070,0.6402259826660156,0
0.9395879745483398,0.6402259826660156,0
0.9442342758178710,0.6427751541137695,0
0.9403329849243164,0.6427751541137695,0
0.9374771118164062,0.6344747543334961,0
0.9569543838500976,0.6344747543334961,0
0.9432558059692382,0.6457506179809570,0
0.9411231994628906,0.6457506179809570,0
0.9359716415405273,0.6421136856079102,0
0.9367292404174804,0.6421136856079102,0
0.9499059677124023,0.6358692169189453,0
0.9476360321044921,0.6358692169189453,0
0.9428758621215820,0.6414419174194336,0
0.9400325775146484,0.6414419174194336,0
0.9381093978881836,0.6355699539184571,0
0.9585062026977539,0.6355699539184571,0
0.9453746795654296,0.6488279342651367,0
0.9327272415161132,0.6488279342651367,0
0.9391782760620117,0.6463479995727539,0
0.9402734756469726,0.6463479995727539,0
0.9536584854125976,0.6411071777343750,0
0.9410945892333984,0.6411071777343750,0
0.9471576690673827,0.6473516464233399,0
0.9444751739501953,0.6473516464233399,0
0.9426532745361328,0.6419466018676757,0
0.9630792617797851,0.6419466018676757,0
0.9500616073608398,0.6554059982299805,0
0.9372699737548827,0.6554059982299805,0
0.9438228607177734,0.6526376724243164,0
0.9446983337402344,0.6526376724243164,0
0.9578790664672852,0.6471719741821289,0
0.9559244155883788,0.6471719741821289,0
0.9510984420776367,0.6528985977172851,0
0.9482053756713866,0.6528985977172851,0
0.9463674545288085,0.6469127655029296,0
0.9664890289306640,0.6469127655029296,0
0.9531372070312499,0.6596094131469726,0
0.9401121139526367,0.6596094131469726,0
0.9463668823242187,0.6558820724487304,0
0.9470197677612304,0.6558820724487304,0
0.9599355697631835,0.6497795104980468,0
0.9579219818115234,0.6497795104980468,0
0.9528236389160156,0.6549413681030273,0
0.9496959686279296,0.6549413681030273,0
0.9478013992309570,0.6484657287597656,0
0.9675928115844726,0.6484657287597656,0
0.9541357040405273,0.6606674194335938,0
0.9409435272216796,0.6606674194335938,0
0.9470781326293944,0.6564949035644531,0
0.9474483489990234,0.6564949035644531,0
0.9603544235229492,0.6501966476440429,0
