REDsignal,IRsignal,synced
0.5776313781738281,0.3332136154174805,0
0.5748367309570312,0.3298461914062500,0
0.5709474563598632,0.3303840637207031,0
0.5709474563598632,0.3447967529296875,0
0.5714344024658203,0.3325263977050781,0
0.5714870452880859,0.3325263977050781,0
0.5741930007934570,0.3270618438720703,0
0.5626533508300781,0.3270618438720703,0
0.5703489303588867,0.3339626312255859,0
0.5706459045410156,0.3339626312255859,0
0.5698299407958984,0.3286663055419922,0
0.5784765243530273,0.3286663055419922,0
0.5716947555541992,0.3454685211181641,0
0.5572689056396484,0.3454685211181641,0
0.5716512680053710,0.3330945968627930,0
0.5719488143920898,0.3330945968627930,0
0.5746456146240234,0.3269908905029297,0
0.5624485015869141,0.3269908905029297,0
0.5700920104980468,0.3336816787719726,0
0.5775861740112305,0.3336816787719726,0
0.5685035705566406,0.3273662567138672,0
0.5749145507812500,0.3273662567138672,0
0.5691690444946289,0.3434989929199219,0
0.5531330108642578,0.3434989929199219,0
0.5674816131591797,0.3292528152465820,0
0.5549034118652344,0.3292528152465820,0
0.5691633224487305,0.3214536666870117,0
0.5818393707275390,0.3214536666870117,0
0.5633302688598633,0.3275133132934570,0
0.5704359054565430,0.3275133132934570,0
0.5611724853515625,0.3208087921142578,0
0.5678546905517577,0.3208087921142578,0
0.5622373580932617,0.3372476577758789,0
0.5525653839111327,0.3372476577758789,0
0.5614774703979492,0.3242328643798828,0
0.5502262115478516,0.3242328643798828,0
0.5651000976562500,0.3178636550903320,0
0.5792100906372070,0.3178636550903320,0
0.5608028411865235,0.3255380630493164,0
0.5686883926391602,0.3255380630493164,0
0.5604188919067382,0.3203767776489257,0
0.5679571151733398,0.3203767776489257,0
0.5629343032836914,0.3382873535156250,0
0.5536931991577149,0.3382873535156250,0
0.5633199691772460,0.3259986877441406,0
0.5640604019165039,0.3259986877441406,0
0.5676692962646485,0.3202280044555664,0
0.5821260452270508,0.3202280044555664,0
0.5638961791992188,0.3283853530883789,0
0.5640226364135742,0.3253847122192383,0
0.5713874816894531,0.3280443191528320,0
0.5662897109985351,0.3207269668579101,0
0.5665369033813477,0.3296264648437500,0
0.5553182601928711,0.3296264648437500,0
0.5582490921020508,0.3413440704345703,0
0.5670433044433594,0.3413440704345703,0
0.5745695114135742,0.3281776428222656,0
0.5717210769653320,0.3281776428222656,0
0.5744585037231446,0.3304922103881836,0
0.5690803527832031,0.3304922103881836,0
0.5597311019897461,0.3230970382690430,0
0.5871482849121094,0.3230970382690430,0
0.5695524215698242,0.3318065643310547,0
0.5732059478759766,0.3318065643310547,0
0.5600452423095703,0.3430755615234375,0
0.5687553405761718,0.3430755615234375,0
0.5761173248291015,0.3296510696411133,0
0.5728420257568360,0.3296510696411133,0
0.5759056091308593,0.3316040039062500,0
0.5696720123291016,0.3316040039062500,0
0.5605602264404297,0.3236927032470703,0
0.5875350952148437,0.3236927032470703,0
0.5699621200561523,0.3320302963256836,0
0.5734439849853515,0.3320302963256836,0
0.5598352432250976,0.3430257797241211,0
0.5685619354248047,0.3430257797241211,0
0.5756515502929688,0.3292688369750976,0
0.5672658920288086,0.3292688369750976,0
0.5755874633789062,0.3309825897216797,0
0.5692783355712890,0.3309825897216797,0
0.5596441268920899,0.3229219436645508,0
0.5867912292480468,0.3229219436645508,0
0.5690093994140625,0.3311857223510742,0
0.5566160202026367,0.3311857223510742,0
0.5587543487548828,0.3421400070190430,0
0.5571842193603516,0.3421400070190430,0
0.5747823715209961,0.3286737442016601,0
0.5665082931518555,0.3286737442016601,0
0.5749259948730469,0.3305179595947266,0
0.5686775207519531,0.3305179595947266,0
0.5590415954589844,0.3224035263061523,0
0.5866939544677734,0.3224035263061523,0
0.5688108444213867,0.3310478210449219,0
0.5566017150878906,0.3310478210449219,0
0.5585346221923828,0.3422641754150391,0
0.5573862075805663,0.3422641754150391,0
0.5748516082763672,0.3290205001831055,0
0.5714704513549804,0.3290205001831055,0
0.5754970550537110,0.3308206558227539,0
0.5691072463989257,0.3308206558227539,0
0.5594215393066406,0.3228841781616211,0
0.5874687194824219,0.3228841781616211,0
0.5693590164184570,0.3316205978393554,0
0.5733879089355468,0.3316205978393554,0
0.5590255737304687,0.3429325103759766,0
0.5684829711914062,0.3429325103759766,0
0.5755056381225586,0.3299171447753906,0
0.5721736907958984,0.3299171447753906,0
0.5765150070190429,0.3315668106079102,0
0.5699254989624023,0.3315668106079102,0
0.5601665496826171,0.3238317489624024,0
0.5885198593139648,0.3238317489624024,0
0.5701944351196289,0.3324314117431640,0
0.5743795394897461,0.3324314117431640,0
0.5598781585693359,0.3437232971191406,0
0.5692056655883789,0.3437232971191406,0
0.5761293411254883,0.3305974960327148,0
0.5728414535522460,0.3305974960327148,0
0.5774042129516601,0.3323358535766601,0
0.5706624984741211,0.3323358535766601,0
0.5609521865844727,0.3244897842407227,0
0.5894050598144531,0.3244897842407227,0
0.5708473205566406,0.3332244873046875,0
0.5588785171508789,0.3332244873046875,0
0.5605653762817383,0.3443687438964844,0
0.5699895858764649,0.3443687438964844,0
0.5767599105834961,0.3315216064453125,0
0.5689498901367187,0.3315216064453125,0
0.5783277511596679,0.3330671310424805,0
0.5714389801025390,0.3330671310424805,0
0.5615793228149414,0.3251358032226562,0
0.5901163101196288,0.3251358032226562,0
0.5714784622192383,0.3337995529174805,0
0.5592893600463867,0.3337995529174805,0
0.5606740951538086,0.3447847366333008,0
0.5595090866088867,0.3447847366333008,0
0.5765132904052734,0.3314620971679688,0
0.5722555160522461,0.3314620971679688,0
0.5775461196899414,0.3320697784423828,0
0.5687250137329102,0.3320697784423828,0
0.5594341278076171,0.3228990554809570,0
0.5864393234252929,0.3228990554809570,0
0.5675296783447266,0.3299228668212891,0
0.5539123535156250,0.3299228668212891,0
0.5549617767333984,0.3392126083374024,0
0.5525630950927735,0.3392126083374024,0
0.5694065093994141,0.3250883102416992,0
0.5644208908081054,0.3250883102416992,0
0.5701051712036133,0.3251735687255859,0
0.5613470077514648,0.3251735687255859,0
0.5521322250366211,0.3165653228759766,0
0.5801170349121093,0.3165653228759766,0
0.5611707687377929,0.3245447158813476,0
0.5492362976074219,0.3245447158813476,0
0.5503229141235352,0.3354944229125976,0
0.5497730255126952,0.3354944229125976,0
0.5667686462402344,0.3230157852172851,0
0.5634252548217773,0.3230157852172851,0
0.5693893432617188,0.3247364044189453,0
0.5618396759033203,0.3247364044189453,0
0.5529836654663086,0.3175649642944336,0
0.5818817138671875,0.3175649642944336,0
0.5631568908691406,0.3264919281005859,0
0.5520114898681641,0.3264919281005859,0
0.5529962539672851,0.3380109786987305,0
0.5530735015869140,0.3380109786987305,0
0.5698287963867187,0.3259952545166016,0
0.5666353225708007,0.3259952545166016,0
0.5729175567626953,0.3278560638427734,0
0.5654932022094726,0.3278560638427734,0
0.5649284362792969,0.3206439971923828,0
0.5538402557373047,0.3291120529174805,0
0.5664270401000976,0.3409664154052734,0
0.5663246154785156,0.3312675476074219,0
0.5727790832519531,0.3249423980712891,0
0.5760332107543945,0.3306644439697266,0
0.5883659362792969,0.3234088897705078,0
0.5675851821899414,0.3317029953002930,0
0.5743663787841796,0.3239673614501953,0
0.5745168685913086,0.3307531356811523,0
0.5670513153076172,0.3307531356811523,0
0.5693361282348632,0.3318071365356445,0
0.5697515487670898,0.3318071365356445,0
0.5603370666503906,0.3242391586303711,0
0.5887664794921875,0.3242391586303711,0
0.5694923400878906,0.3322397232055664,0
0.5579532623291016,0.3322397232055664,0
0.5582622528076172,0.3427791595458984,0
0.5577249526977539,0.3427791595458984,0
0.5739635467529297,0.3301128387451172,0
0.5698059082031249,0.3301128387451172,0
0.5770288467407226,0.3310970306396484,0
0.5682712554931640,0.3310970306396484,0
0.5594324111938477,0.3235021591186523,0
0.5876071929931640,0.3235021591186523,0
0.5683834075927734,0.3312875747680664,0
0.5568346023559571,0.3312875747680664,0
0.5573192596435547,0.3418258666992187,0
0.5568557739257812,0.3418258666992187,0
0.5729742050170898,0.3295097351074219,0
0.5690299987792968,0.3295097351074219,0
0.5766471862792969,0.3305757522583008,0
0.5678123474121094,0.3305757522583008,0
0.5589351654052734,0.3232292175292968,0
0.5874853134155273,0.3232292175292968,0
0.5682746887207031,0.3312372207641601,0
0.5570732116699219,0.3312372207641601,0
0.5574302673339844,0.3419282913208008,0
0.5573467254638672,0.3419282913208008,0
0.5731401443481445,0.3300544738769531,0
0.5694288253784180,0.3300544738769531,0
0.5771369934082031,0.3310558319091797,0
0.5685213088989257,0.3310558319091797,0
0.5596035003662109,0.3236715316772461,0
0.5882984161376953,0.3236715316772461,0
0.5689167022705078,0.3318523406982422,0
0.5580305099487305,0.3318523406982422,0
0.5579481124877930,0.3426504135131836,0
0.5582170486450195,0.3426504135131836,0
0.5738576889038086,0.3311021804809570,0
0.5699129104614258,0.3311021804809570,0
0.5780588150024414,0.3318580627441406,0
0.5692640304565429,0.3318580627441406,0
0.5605321884155273,0.3246517181396484,0
0.5891252517700195,0.3246517181396484,0
0.5696949005126953,0.3326860427856445,0
0.5588665008544922,0.3326860427856445,0
0.5585700988769531,0.3433010101318359,0
0.5589408874511719,0.3433010101318359,0
0.5744693756103515,0.3316961288452148,0
0.5706951141357421,0.3316961288452148,0
0.5788719177246093,0.3325750350952149,0
0.5701051712036133,0.3325750350952149,0
0.5613899230957031,0.3254745483398437,0
0.5901094436645508,0.3254745483398437,0
0.5705291748046875,0.3334367752075195,0
0.5597253799438476,0.3334367752075195,0
0.5595056533813476,0.3439825057983398,0
0.5597242355346680,0.3439825057983398,0
0.5751348495483398,0.3324726104736328,0
0.5711963653564452,0.3324726104736328,0
0.5796667098999023,0.3332553863525390,0
0.5705549240112304,0.3332553863525390,0
0.5619724273681640,0.3259752273559570,0
0.5902662277221680,0.3259752273559570,0
0.5706401824951172,0.3335712432861328,0
0.5592767715454101,0.3335712432861328,0
0.5587434768676758,0.3432460784912109,0
0.5580184936523437,0.3432460784912109,0
0.5731372833251953,0.3308412551879883,0
0.5677007675170899,0.3308412551879883,0
0.5762340545654296,0.3298593521118164,0
0.5652523040771484,0.3298593521118164,0
0.5564535140991210,0.3206428527832031,0
0.5834775924682617,0.3206428527832031,0
0.5634664535522461,0.3269227981567382,0
0.5511085510253906,0.3269227981567382,0
0.5503595352172851,0.3358446121215820,0
0.5497409820556640,0.3358446121215820,0
0.5648735046386718,0.3235897064208984,0
0.5599851608276367,0.3235897064208984,0
0.5689807891845703,0.3234140396118164,0
0.5591949462890625,0.3234140396118164,0
0.5507520675659180,0.3159393310546875,0
0.5793245315551757,0.3159393310546875,0
0.5596784591674805,0.3238775253295899,0
0.5491441726684571,0.3238775253295899,0
0.5485433578491211,0.3344249725341797,0
0.5495223999023438,0.3344249725341797,0
0.5647001266479492,0.3235427856445313,0
0.5610660552978516,0.3235427856445313,0
0.5704988479614258,0.3248943328857422,0
0.5615358352661133,0.3248943328857422,0
0.5533281326293945,0.3184982299804687,0
0.5826330184936523,0.3184982299804687,0
0.5628828048706055,0.3267728805541992,0
0.5528177261352539,0.3267728805541992,0
0.5533138275146484,0.3375772476196289,0
0.5538282394409180,0.3375772476196289,0
0.5683330535888672,0.3269273757934570,0
0.5647092819213867,0.3269273757934570,0
0.5745969772338867,0.3284894943237305,0
0.5654714584350585,0.3284894943237305,0
0.5573226928710937,0.3224882125854492,0
0.5860485076904297,0.3224882125854492,0
0.5664052963256836,0.3302701950073242,0
0.5566686630249024,0.3302701950073242,0
0.5564323425292969,0.3406236648559570,0
0.5571310043334960,0.3406236648559570,0
0.5714435577392578,0.3301031112670899,0
0.5677133560180664,0.3301031112670899,0
0.5774734497070312,0.3311422348022461,0
0.5682455062866211,0.3311422348022461,0
0.5597637176513671,0.3247461318969727,0
0.5882961273193359,0.3247461318969727,0
0.5686723709106445,0.3322105407714844,0
0.5585123062133789,0.3322105407714844,0
0.5579612731933593,0.3420598983764648,0
0.5584390640258788,0.3420598983764648,0
0.5725181579589843,0.3312149047851562,0
0.5681482315063476,0.3312149047851562,0
0.5783002853393554,0.3316211700439453,0
0.5682231903076171,0.3316211700439453,0
0.5599313735961914,0.3246494293212890,0
0.5878583908081054,0.3246494293212890,0
0.5682289123535156,0.3317556381225586,0
0.5575807571411132,0.3317556381225586,0
0.5565193176269531,0.3413812637329102,0
0.5570566177368164,0.3413812637329102,0
0.5714401245117188,0.3302215576171875,0
0.5670381546020508,0.3302215576171875,0
0.5770088195800781,0.3304595947265625,0
0.5668659210205078,0.3304595947265625,0
0.5585689544677734,0.3234855651855469,0
0.5869583129882813,0.3234855651855469,0
0.5670764923095702,0.3308115005493164,0
0.5565141677856446,0.3308115005493164,0
0.5557537078857422,0.3406047821044922,0
0.5562532424926757,0.3406047821044922,0
0.5706081390380859,0.3297426223754883,0
0.5663887023925781,0.3297426223754883,0
0.5769264221191406,0.3302684783935547,0
0.5667697906494140,0.3302684783935547,0
0.5585592269897460,0.3234912872314453,0
0.5872186660766602,0.3234912872314453,0
0.5671966552734374,0.3310592651367187,0
0.5570383071899414,0.3310592651367187,0
0.5559968948364258,0.3409503936767578,0
0.5568511962890624,0.3409503936767578,0
0.5709840774536132,0.3305660247802734,0
0.5668670654296875,0.3305660247802734,0
0.5776473999023437,0.3308275222778320,0
0.5675428390502929,0.3308275222778320,0
0.5592601776123046,0.3241029739379883,0
0.5880826950073242,0.3241029739379883,0
0.5679410934448242,0.3317602157592773,0
0.5578685760498047,0.3317602157592773,0
0.5566726684570312,0.3417915344238281,0
0.5576763153076172,0.3417915344238281,0
0.5655040740966797,0.3255861282348633,0
0.5784444808959961,0.3249944686889648,0
0.5687187194824218,0.3424346923828125,0
0.5662210464477538,0.3548955917358398,0
0.5818038940429687,0.3316360473632812,0
0.5532915115356445,0.3463851928710938,0
0.5563562393188476,0.3334848403930664,0
0.5580556869506835,0.3242832183837890,0
0.5592344284057617,0.3430532455444336,0
0.5729661941528320,0.3326980590820313,0
0.5699655532836914,0.3317916870117187,0
0.5532857894897460,0.3290245056152344,0
0.5555208206176757,0.3335260391235351,0
0.5822965621948242,0.3233407974243164,0
0.5639917373657226,0.3317607879638672,0
0.5693870544433594,0.3294382095336914,0
0.5614511489868164,0.3272655487060547,0
0.5583703994750976,0.3200494766235352,0
0.5452011108398437,0.3249801635742187,0
0.5714315414428711,0.3140092849731445,0
0.5591629028320312,0.3052093505859375,0
0.5536176681518554,0.3065626144409180,0
0.5551385879516602,0.3182344436645508,0
0.5750398635864258,0.3130405426025391,0
0.5617504119873047,0.3088834762573242,0
0.5439868927001953,0.3175220489501953,0
0.5549217224121094,0.3216173171997070,0
0.5674180984497070,0.3091215133666992,0
0.5575859069824218,0.3212602615356445,0
0.5563316345214844,0.3202995300292968,0
0.5661546707153320,0.3153923034667969,0
0.5486577987670899,0.3261125564575195,0
0.5637531280517578,0.3106126785278320,0
0.5722532272338867,0.3259477615356445,0
0.5621246337890625,0.3203098297119141,0
0.5606546401977539,0.3242671966552734,0
0.5702144622802734,0.3166854858398437,0
0.5631443023681640,0.3253292083740234,0
0.5672962188720703,0.3138553619384766,0
0.5781721115112305,0.3225448608398437,0
0.5490612030029297,0.3428215026855468,0
0.5570165634155273,0.3226919174194336,0
0.5654148101806641,0.3299806594848633,0
0.5540679931640625,0.3393968582153320,0
0.5645902633666992,0.3308658599853516,0
0.5624536514282227,0.3517313003540039,0
0.5657192230224609,0.3430555343627930,0
0.5572849273681640,0.3409275054931640,0
0.5650737762451171,0.3286108016967773,0
0.5530981063842774,0.3457695007324219,0
0.5635511398315429,0.3385025024414062,0
0.5621864318847656,0.3284082412719727,0
0.5641868591308593,0.3270000457763672,0
0.5475059509277344,0.3416490554809570,0
0.5503772735595703,0.3290302276611328,0
0.5781188964843750,0.3190790176391601,0
0.5521825790405274,0.3375497817993164,0
0.5663921356201171,0.3277627944946289,0
0.5746273040771485,0.3279682159423828,0
0.5641427993774414,0.3217340469360351,0
0.5619632720947265,0.3253200531005859,0
0.5711442947387695,0.3196020126342773,0
0.5527896881103516,0.3458782196044922,0
0.5631116867065430,0.3298696517944336,0
0.5755971908569336,0.3224493026733398,0
0.5646257400512695,0.3288774490356445,0
0.5569742202758788,0.3228275299072266,0
0.5650835037231445,0.3300121307373047,0
0.5723602294921875,0.3206428527832031,0
0.5645267486572265,0.3310684204101562,0
0.5624530792236327,0.3238117218017578,0
0.5498548507690429,0.3437456130981445,0
0.5581317901611328,0.3314197540283203,0
0.5660676956176758,0.3309539794921875,0
0.5563430786132812,0.3402620315551758,0
0.5655086517333984,0.3319507598876953,0
0.5632896423339844,0.3247049331665039,0
0.5671028137207031,0.3444293975830078,0
0.5589420318603515,0.3425308227539062,0
0.5668647766113281,0.3309911727905273,0
0.5555969238281250,0.3488519668579101,0
0.5571453094482421,0.3408845901489257,0
0.5648105621337890,0.3314649581909180,0
0.5672801971435547,0.3314975738525390,0
0.5514673233032227,0.3256822586059570,0
0.5543043136596679,0.3328439712524414,0
0.5821254730224609,0.3232561111450195,0
0.5561502456665038,0.3414482116699218,0
0.5701812744140625,0.3320480346679687,0
0.5791042327880859,0.3320102691650391,0
0.5682191848754883,0.3259981155395508,0
0.5657730102539062,0.3293924331665039,0
0.5743686676025390,0.3194766998291015,0
0.5551786422729492,0.3225831985473633,0
0.5629463195800781,0.3314432144165039,0
0.5753030776977539,0.3217700958251953,0
0.5737638473510742,0.3388355255126953,0
0.5516819000244141,0.3180175781250000,0
0.5447822570800781,0.3220493316650391,0
0.5626161575317382,0.3114526748657226,0
0.5518180847167968,0.3190887451171875,0
0.5467889785766601,0.3092119216918945,0
0.5606077194213867,0.3145643234252929,0
0.5404357910156250,0.3249057769775390,0
0.5477891921997070,0.3135292053222656,0
0.5385789871215820,0.3143503189086914,0
0.5390968322753906,0.3237012863159179,0
0.5474727630615234,0.3154460906982422,0
0.5465280532836914,0.3164531707763672,0
0.5514066696166992,0.3300144195556641,0
0.5500900268554687,0.3195041656494140,0
0.5528657913208007,0.3103254318237305,0
0.5429180145263671,0.3291646957397461,0
0.5574743270874023,0.3209123611450195,0
0.5523931503295898,0.3218255996704101,0
0.5569742202758788,0.3216819763183594,0
0.5556146621704101,0.3244274139404297,0
0.5580139160156250,0.3237144470214844,0
0.5733587265014648,0.3149969100952149,0
0.5620582580566406,0.3105365753173828,0
0.5577014923095703,0.3135801315307617,0
0.5610088348388672,0.3258384704589843,0
0.5826833724975585,0.3203407287597656,0
0.5691284179687500,0.3180501937866211,0
0.5504138946533202,0.3285306930541992,0
0.5642354965209960,0.3275161743164062,0
0.5740419387817383,0.3272237777709961,0
0.5626733779907226,0.3272237777709961,0
0.5548215866088867,0.3213747024536133,0
0.5830879211425781,0.3213747024536133,0
0.5620027542114258,0.3275831222534180,0
0.5693132400512695,0.3275831222534180,0
0.5501724243164062,0.3359579086303711,0
0.5607988357543945,0.3359579086303711,0
0.5634464263916016,0.3266229629516602,0
0.5577358245849610,0.3266229629516602,0
0.5727338790893555,0.3260702133178711,0
0.5611787796020508,0.3260702133178711,0
0.5532062530517577,0.3201078414916992,0
0.5812694549560546,0.3201078414916992,0
0.5602781295776367,0.3260868072509766,0
0.5507863998413086,0.3260868072509766,0
0.5486560821533203,0.3345399856567383,0
0.5593276977539062,0.3345399856567383,0
0.5620840072631835,0.3255363464355469,0
0.5565999984741211,0.3255363464355469,0
0.5718870162963867,0.3252845764160156,0
0.5604978561401367,0.3252845764160156,0
0.5526855468749999,0.3198892593383789,0
0.5582187652587890,0.3198892593383789,0
0.5601161956787110,0.3262590408325195,0
0.5679777145385742,0.3262590408325195,0
0.5491024017333984,0.3349828720092773,0
0.5598335266113281,0.3220745086669922,0
0.5578142166137695,0.3265531539916992,0
0.5573701858520508,0.3487598419189453,0
0.5573701858520508,0.3262699127197266,0
0.5614826202392578,0.3256324768066406,0
0.5614826202392578,0.3210514068603516,0
0.5600406646728515,0.3210514068603516,0
0.5485788345336914,0.3275859832763672,0
0.5694093704223633,0.3181955337524414,0
0.5759943008422851,0.3363338470458984,0
0.5612348556518555,0.3234746932983398,0
0.5612348556518555,0.3280002593994141,0
0.5587995529174804,0.3502910614013672,0
0.5587995529174804,0.3276500701904297,0
0.5629623413085937,0.3269084930419922,0
0.5629623413085937,0.3225111007690429,0
0.5606512069702149,0.3225111007690429,0
0.5628896713256836,0.3288253784179687,0
0.5705972671508789,0.3288253784179687,0
0.5516366958618164,0.3373941421508789,0
0.5624530792236327,0.3373941421508789,0
0.5651962280273437,0.3290679931640625,0
0.5599811553955077,0.3290679931640625,0
0.5756704330444335,0.3288179397583008,0
0.5640632629394531,0.3288179397583008,0
0.5566268920898437,0.3235364913940429,0
0.5617698669433594,0.3235364913940429,0
0.5639717102050781,0.3298198699951172,0
0.5717136383056640,0.3298198699951172,0
0.5528406143188477,0.3382644653320312,0
0.5634613037109375,0.3382644653320312,0
0.5662422180175781,0.3299749374389648,0
0.5608125686645508,0.3299749374389648,0
0.5766603469848632,0.3297197341918945,0
0.5650611877441406,0.3289386749267578,0
0.5576700210571289,0.3242963790893554,0
0.5626539230346680,0.3242963790893554,0
0.5647785186767578,0.3305574417114258,0
0.5724002838134765,0.3305574417114258,0
0.5535066604614257,0.3389562606811523,0
0.5642057418823242,0.3389562606811523,0
0.5670541763305664,0.3305402755737304,0
0.5615489959716796,0.3305402755737304,0
0.5771833419799804,0.3302381515502930,0
0.5655647277832031,0.3302381515502930,0
0.5580499649047851,0.3246477127075195,0
0.5631265640258789,0.3246477127075195,0
0.5652700424194336,0.3310707092285156,0
0.5563928604125976,0.3310707092285156,0
0.5538351058959960,0.3395095825195312,0
0.5558647155761719,0.3395095825195312,0
0.5670942306518555,0.3310998916625976,0
0.5618659973144531,0.3310998916625976,0
0.5775753021240234,0.3305637359619141,0
0.5659646987915039,0.3305637359619141,0
0.5584201812744141,0.3250488281250000,0
0.5633691787719727,0.3250488281250000,0
0.5654411315917969,0.3313556671142578,0
0.5731361389160156,0.3313556671142578,0
0.5541269302368164,0.3397087097167968,0
0.5649312973022461,0.3267414093017578,0
0.5649312973022461,0.3530725479125976,0
0.5777853012084960,0.3185010910034179,0
0.5589488983154297,0.3254430770874023,0
0.5635631561279296,0.3317722320556640,0
0.5734708786010742,0.3317722320556640,0
0.5544799804687500,0.3398059844970703,0
0.5649415969848632,0.3398059844970703,0
0.5671628952026367,0.3309036254882812,0
0.5613206863403321,0.3516260147094726,0
0.5764200210571289,0.3293455123901367,0
0.5625732421874999,0.3293455123901367,0
0.5552141189575195,0.3218124389648437,0
0.5810754776000976,0.3218124389648437,0
0.5592315673828124,0.3256204605102539,0
0.5654748916625977,0.3256204605102539,0
0.5448040008544922,0.3305276870727539,0
0.5538751602172851,0.3305276870727539,0
0.5547666549682617,0.3193290710449219,0
0.5477846145629882,0.3193290710449219,0
0.5619037628173827,0.3156372070312500,0
0.5469783782958985,0.3156372070312500,0
0.5396661758422852,0.3076652526855468,0
0.5434684753417969,0.3076652526855468,0
0.5447570800781250,0.3120700836181641,0
0.5519983291625976,0.3120700836181641,0
0.5326217651367188,0.3195230484008789,0
0.5431274414062500,0.3195230484008789,0
0.5407293319702148,0.3117822647094726,0
0.5407562255859375,0.3342418670654297,0
0.5568202972412110,0.3118761062622070,0
0.5457967758178711,0.3118761062622070,0
0.5389320373535156,0.3080211639404297,0
0.5681957244873047,0.3080211639404297,0
0.5474172592163086,0.3153001785278320,0
0.5395963668823242,0.3153001785278320,0
0.5375335693359374,0.3248027801513672,0
0.5488689422607421,0.3248027801513672,0
0.5519668579101562,0.3180353164672852,0
0.5473960876464844,0.3180353164672852,0
0.5638927459716797,0.3184988021850586,0
0.5526838302612305,0.3184988021850586,0
0.5459415435791015,0.3145053863525391,0
0.5512424468994140,0.3145053863525391,0
0.5539827346801758,0.3212860107421875,0
0.5459197998046875,0.3212860107421875,0
0.5437128067016601,0.3302267074584961,0
0.5546882629394531,0.3302267074584961,0
0.5574394226074219,0.3230260848999023,0
0.5528686523437499,0.3230260848999023,0
0.5690311431884766,0.3232137680053711,0
0.5575103759765625,0.3232137680053711,0
0.5507268905639648,0.3188495635986328,0
0.5796821594238281,0.3188495635986328,0
0.5584882736206055,0.3253486633300781,0
0.5667491912841797,0.3253486633300781,0
0.5585506439208984,0.3268695831298828,0
0.5561445236206054,0.3196878433227539,0
0.5530048370361328,0.3208488464355468,0
0.5469280242919922,0.3142461776733398,0
0.5487104415893554,0.3438646316528320,0
0.5614717483520507,0.3264953613281250,0
0.5718996047973632,0.3256381988525390,0
0.5588905334472656,0.3256553649902343,0
0.5488786697387695,0.3198869705200195,0
0.5597671508789063,0.3464166641235352,0
0.5544193267822265,0.3178962707519531,0
0.5584339141845703,0.3368705749511718,0
0.5416563034057617,0.3368705749511718,0
0.5556655883789062,0.3259265899658203,0
0.5446804046630859,0.3259265899658203,0
0.5657735824584961,0.3153036117553711,0
0.5719053268432617,0.3153036117553711,0
0.5573661804199218,0.3258928298950195,0
0.5599422454833984,0.3258928298950195,0
0.5548009872436523,0.3182241439819336,0
0.5709411621093750,0.3182241439819336,0
0.5591571807861327,0.3377998352050781,0
0.5520589828491210,0.3377998352050781,0
0.5566148757934570,0.3269920349121094,0
0.5460834503173828,0.3269920349121094,0
0.5673368453979492,0.3165275573730469,0
0.5736368179321288,0.3165275573730469,0
0.5588356018066406,0.3272375106811523,0
0.5587966918945312,0.3272375106811523,0
0.5563447952270507,0.3197593688964844,0
0.5753065109252929,0.3197593688964844,0
0.5607902526855468,0.3392869949340820,0
0.5537624359130859,0.3392869949340820,0
0.5584253311157227,0.3285621643066406,0
0.5607627868652344,0.3285621643066406,0
0.5688772201538086,0.3179718017578125,0
0.5750158309936523,0.3179718017578125,0
0.5603233337402344,0.3287029266357422,0
0.5602443695068359,0.3287029266357422,0
0.5577735900878906,0.3213294982910156,0
0.5738136291503906,0.3213294982910156,0
0.5620742797851562,0.3406688690185547,0
0.5455553054809570,0.3406688690185547,0
0.5595531463623047,0.3296567916870117,0
0.5618350982666015,0.3296567916870117,0
0.5699254989624023,0.3191688537597656,0
0.5506702423095703,0.3191688537597656,0
0.5613452911376953,0.3296579360961914,0
0.5636804580688476,0.3296579360961914,0
0.5586221694946288,0.3223423004150390,0
0.5747016906738281,0.3223423004150390,0
0.5629783630371094,0.3412456512451172,0
0.5463386535644531,0.3412456512451172,0
0.5604131698608398,0.3304321289062500,0
0.5495155334472656,0.3304321289062500,0
0.5705389022827149,0.3199041366577148,0
0.5764675140380859,0.3199041366577148,0
0.5619981765747070,0.3302467346191406,0
0.5616600036621093,0.3302467346191406,0
0.5591960906982422,0.3229322433471680,0
0.5753906249999999,0.3229322433471680,0
0.5633543014526367,0.3418996810913086,0
0.5470087051391601,0.3418996810913086,0
0.5609670639038086,0.3309825897216797,0
0.5499984741210937,0.3309825897216797,0
0.5712335586547851,0.3203710556030273,0
0.5771730422973632,0.3203710556030273,0
0.5626373291015625,0.3308029174804688,0
0.5622322082519531,0.3308029174804688,0
0.5596618652343750,0.3234415054321289,0
0.5784439086914063,0.3234415054321289,0
0.5640546798706054,0.3423351287841797,0
0.5474109649658203,0.3423351287841797,0
0.5614076614379883,0.3314363479614258,0
0.5503583908081054,0.3314363479614258,0
0.5716003417968750,0.3208660125732422,0
0.5774276733398437,0.3208660125732422,0
0.5629846572875976,0.3312383651733398,0
0.5626024246215821,0.3312383651733398,0
0.5601041793823242,0.3238660812377930,0
0.5788135528564453,0.3238660812377930,0
0.5643367767333984,0.3427345275878906,0
0.5476455688476562,0.3427345275878906,0
0.5616422653198242,0.3317516326904297,0
0.5505987167358398,0.3317516326904297,0
0.5717988967895508,0.3211801528930664,0
0.5776702880859375,0.3211801528930664,0
0.5632226943969726,0.3314981460571289,0
0.5628667831420898,0.3314981460571289,0
0.5603702545166015,0.3241893768310547,0
0.5791889190673828,0.3241893768310547,0
0.5646446228027343,0.3431367874145508,0
0.5479602813720703,0.3431367874145508,0
0.5619947433471679,0.3321166992187500,0
0.5510782241821289,0.3321166992187500,0
0.5720174789428710,0.3213844299316406,0
0.5780313491821288,0.3213844299316406,0
0.5636547088623046,0.3318878173828125,0
0.5632965087890625,0.3318878173828125,0
0.5607336044311523,0.3244554519653320,0
0.5795167922973633,0.3244554519653320,0
0.5651241302490234,0.3435974121093750,0
0.5486869812011719,0.3435974121093750,0
0.5625034332275390,0.3326568603515625,0
0.5517059326171875,0.3326568603515625,0
0.5728528976440429,0.3220315933227539,0
0.5790029525756836,0.3220315933227539,0
0.5642738342285156,0.3325441360473633,0
0.5639442443847656,0.3325441360473633,0
0.5614551544189453,0.3249446868896484,0
0.5802165985107421,0.3249446868896484,0
0.5657444000244141,0.3442565917968750,0
0.5491058349609375,0.3442565917968750,0
0.5630819320678710,0.3329275131225586,0
0.5517482757568359,0.3329275131225586,0
0.5726961135864258,0.3217935562133789,0
0.5778676986694335,0.3217935562133789,0
0.5628210067749023,0.3310398101806640,0
0.5607645034790039,0.3310398101806640,0
0.5576866149902343,0.3213209152221679,0
0.5737987518310547,0.3213209152221679,0
0.5589357376098633,0.3376699447631836,0
0.5394384384155273,0.3376699447631836,0
0.5530191421508789,0.3235342025756836,0
0.5394121170043945,0.3235342025756836,0
0.5600366592407227,0.3101251602172851,0
0.5635259628295898,0.3101251602172851,0
0.5482389450073242,0.3173297882080078,0
0.5453699111938476,0.3173297882080078,0
0.5424871444702148,0.3071588516235351,0
0.5596246719360352,0.3071588516235351,0
0.5452577590942382,0.3251832962036132,0
0.5279726028442383,0.3251832962036132,0
0.5420969009399413,0.3137952804565430,0
0.5311546325683594,0.3137952804565430,0
0.5525407791137695,0.3036643981933594,0
0.5591251373291015,0.3036643981933594,0
0.5449241638183594,0.3150615692138672,0
0.5454872131347656,0.3150615692138672,0
0.5434427261352539,0.3086259841918945,0
0.5631877899169921,0.3086259841918945,0
0.5491624832153320,0.3293397903442383,0
0.5336568832397460,0.3293397903442383,0
0.5478767395019531,0.3196437835693359,0
0.5379495620727539,0.3196437835693359,0
0.5594020843505859,0.3104003906250000,0
0.5666101455688476,0.3104003906250000,0
0.5522666931152344,0.3219606399536133,0
0.5528297424316406,0.3219606399536133,0
0.5505992889404296,0.3155845642089843,0
0.5701612472534180,0.3155845642089843,0
0.5559854507446289,0.3357461929321289,0
0.5400175094604492,0.3357461929321289,0
0.5542116165161133,0.3253458023071289,0
0.5438901901245117,0.3253458023071289,0
0.5654148101806641,0.3156291961669922,0
0.5720895767211914,0.3156291961669922,0
0.5576482772827148,0.3268381118774414,0
0.5578788757324219,0.3268381118774414,0
0.5554744720458984,0.3200654983520508,0
0.5747280120849609,0.3200654983520508,0
0.5604858398437500,0.3397916793823242,0
0.5440137863159179,0.3397916793823242,0
0.5583314895629883,0.3290039062500000,0
0.5472461700439453,0.3290039062500000,0
0.5689149856567383,0.3185995101928711,0
0.5747360229492188,0.3185995101928711,0
0.5603347778320312,0.3291898727416992,0
0.5596818923950195,0.3291898727416992,0
0.5574199676513671,0.3217752456665039,0
0.5759210586547852,0.3217752456665039,0
0.5615667343139649,0.3407049179077148,0
0.5442941665649413,0.3407049179077148,0
0.5586885452270508,0.3291028976440429,0
0.5469383239746094,0.3291028976440429,0
0.5682666778564452,0.3180782318115234,0
0.5738073348999023,0.3180782318115234,0
0.5591268539428711,0.3280620574951172,0
0.5582141876220703,0.3280620574951172,0
0.5556278228759766,0.3200139999389648,0
0.5740018844604492,0.3200139999389648,0
0.5593849182128906,0.3386512756347656,0
0.5420345306396485,0.3386512756347656,0
0.5561748504638672,0.3269811630249023,0
0.5446054458618164,0.3269811630249023,0
0.5658714294433593,0.3158449172973632,0
0.5719539642333984,0.3158449172973632,0
0.5569015502929687,0.3261543273925781,0
0.5563940048217774,0.3261543273925781,0
0.5538671493530273,0.3183929443359375,0
0.5728128433227538,0.3183929443359375,0
0.5581443786621093,0.3378524780273438,0
0.5415527343750000,0.3378524780273438,0
0.5557073593139649,0.3267190933227539,0
0.5447193145751953,0.3267190933227539,0
0.5659166336059570,0.3162014007568359,0
0.5723264694213867,0.3162014007568359,0
0.5574508666992187,0.3269519805908203,0
0.5572174072265624,0.3269519805908203,0
0.5547986984252929,0.3195413589477539,0
0.5737678527832031,0.3195413589477539,0
0.5591674804687500,0.3391227722167969,0
0.5427211761474610,0.3391227722167969,0
0.5567733764648437,0.3279344558715820,0
0.5460142135620117,0.3279344558715820,0
0.5671846389770507,0.3175317764282227,0
0.5735389709472656,0.3175317764282227,0
0.5587182998657226,0.3282812118530273,0
0.5586027145385742,0.3282812118530273,0
0.5559911727905273,0.3207441329956054,0
0.5749460220336914,0.3207441329956054,0
0.5604938507080078,0.3403518676757812,0
0.5530883789062500,0.3403518676757812,0
0.5579263687133789,0.3292556762695312,0
0.5469800949096679,0.3292556762695312,0
0.5683519363403320,0.3187580108642578,0
0.5745815277099610,0.3187580108642578,0
0.5598810195922851,0.3294336318969727,0
0.5596561431884766,0.3294336318969727,0
0.5570566177368164,0.3217723846435547,0
0.5760738372802734,0.3217723846435547,0
0.5614746093749999,0.3412759780883789,0
0.5449481964111328,0.3412759780883789,0
0.5588979721069336,0.3302095413208008,0
0.5481004714965820,0.3302095413208008,0
0.5692176818847656,0.3197244644165039,0
0.5756692886352539,0.3197244644165039,0
0.5606975555419922,0.3303205490112305,0
0.5604904174804687,0.3303205490112305,0
0.5579406738281250,0.3226564407348633,0
0.5741558074951172,0.3290697097778320,0
0.5618127822875977,0.3403186798095703,0
0.5550659179687499,0.3237516403198242,0
0.5621623992919922,0.3300779342651367,0
0.5532171249389648,0.3300779342651367,0
0.5508590698242187,0.3383234024047851,0
0.5528285980224609,0.3383234024047851,0
0.5640106201171875,0.3301780700683594,0
0.5586782455444336,0.3301780700683594,0
0.5747817993164063,0.3297603607177734,0
0.5624244689941406,0.3297603607177734,0
0.5555185317993164,0.3243633270263672,0
0.5840291976928711,0.3243633270263672,0
0.5625829696655273,0.3304750442504883,0
0.5536760330200196,0.3304750442504883,0
0.5512269973754883,0.3387628555297851,0
0.5532011032104492,0.3387628555297851,0
0.5642990112304688,0.3306987762451172,0
0.5590175628662110,0.3306987762451172,0
0.5750318527221679,0.3300035476684570,0
0.5627008438110351,0.3300035476684570,0
0.5556135177612305,0.3248348236083984,0
0.5842603683471680,0.3248348236083984,0
0.5628232955932617,0.3307777404785156,0
0.5538740158081055,0.3307777404785156,0
0.5513975143432617,0.3390174865722656,0
0.5534248352050781,0.3390174865722656,0
0.5645502090454101,0.3307657241821289,0
0.5592178344726563,0.3307657241821289,0
0.5752069473266601,0.3302461624145508,0
0.5630058288574219,0.3302461624145508,0
0.5560152053833007,0.3252897262573242,0
0.5846191406250000,0.3252897262573242,0
0.5632221221923828,0.3312143325805664,0
0.5544021606445312,0.3312143325805664,0
0.5519062042236328,0.3393745422363281,0
0.5538745880126953,0.3393745422363281,0
0.5598403930664062,0.3312498092651367,0
0.5597848892211914,0.3247306823730469,0
0.5640518188476562,0.3439344406127929,0
0.5502576828002930,0.3325309753417969,0
0.5545560836791992,0.3219514846801758,0
0.5519685745239258,0.3394752502441406,0
0.5644289016723633,0.3304058074951172,0
0.5733907699584960,0.3283464431762695,0
0.5604681015014649,0.3207647323608399,0
0.5550813674926758,0.3264129638671875,0
0.5621429443359375,0.3129112243652344,0
0.5506141662597656,0.3208820343017578,0
0.5517557144165038,0.3186590194702149,0
0.5595176696777343,0.3153619766235352,0
0.5378614425659179,0.3082283020019531,0
0.5422594070434570,0.3133403778076172,0
0.5517105102539063,0.3035791397094726,0
0.5433380126953125,0.3145488739013672,0
0.5414056777954102,0.3077962875366211,0
0.5579721450805664,0.3285226821899414,0
0.5399934768676757,0.3106201171875000,0
0.5485015869140625,0.3179512023925781,0
0.5568958282470703,0.3274549484252929,0
0.5496648788452149,0.3206365585327148,0
0.5675010681152344,0.3139858245849609,0
0.5644763946533203,0.3345949172973633,0
0.5465515136718749,0.3164577484130859,0
0.5464628219604492,0.3236160278320312,0
0.5629274368286132,0.3328405380249023,0
0.5552267074584961,0.3256868362426757,0
0.5532737731933594,0.3186916351318359,0
0.5421461105346680,0.3390277862548828,0
0.5510461807250976,0.3205324172973633,0
0.5588327407836914,0.3274000167846680,0
0.5477354049682617,0.3362520217895508,0
0.5585792541503906,0.3281169891357422,0
0.5559825897216797,0.3210714340209961,0
0.5434467315673828,0.3406431198120117,0
0.5525539398193359,0.3291704177856445,0
0.5597156524658203,0.3282062530517578,0
0.5498611450195312,0.3363080978393554,0
0.5586771011352539,0.3285472869873047,0
0.5554939270019531,0.3207149505615234,0
0.5591182708740234,0.3396034240722656,0
0.5513151168823242,0.3372047424316406,0
0.5579366683959961,0.3256811141967773,0
0.5461893081665039,0.3433439254760742,0
0.5565633773803711,0.3105216979980469,0
0.5536439895629882,0.3259145736694336,0
0.5575183868408203,0.3243764877319336,0
0.5411081314086914,0.3384201049804688,0
0.5439559936523437,0.3269908905029297,0
0.5715557098388672,0.3166666030883789,0
0.5460908889770507,0.3344610214233398,0
0.5596115112304687,0.3263368606567383,0
0.5699953079223633,0.3261577606201172,0
0.5585426330566406,0.3254705429077148,0
0.5562984466552734,0.3251564025878906,0
0.5662267684936523,0.3151834487915039,0
0.5729593276977539,0.3231130599975586,0
0.5580905914306641,0.3285324096679688,0
0.5741334915161133,0.3214330673217773,0
0.5714481353759765,0.3276231765747070,0
0.5523988723754882,0.3224035263061523,0
0.5599714279174804,0.3287910461425781,0
0.5677585601806641,0.3373764038085937,0
0.5595817565917969,0.3298828125000000,0
0.5569908142089843,0.3226152420043945,0
0.5726760864257813,0.3287933349609375,0
0.5534763336181641,0.3235404968261719,0
0.5610666275024414,0.3291263580322266,0
0.5686540603637695,0.3472166061401367,0
0.5518255233764648,0.3383829116821289,0
0.5578657150268554,0.3521535873413086,0
0.5761653900146484,0.3233264923095703,0
0.5456188201904296,0.3429182052612305,0
0.5486629486083984,0.3313390731811524,0
0.5618225097656250,0.3305797576904297,0
0.5525133132934570,0.3390598297119141,0
0.5589254379272460,0.3304681777954102,0
0.5586055755615235,0.3238100051879882,0
0.5626081466674805,0.3435390472412109,0
0.5603387832641601,0.3319255828857422,0
0.5623781204223632,0.3311473846435547,0
0.5510341644287109,0.3482780456542969,0
0.5643877029418946,0.3310810089111328,0
0.5591405868530274,0.3530399322509766,0
0.5629549026489258,0.3297403335571289,0
0.5605779647827148,0.3287710189819336,0
0.5626527786254882,0.3190818786621094,0
0.5768302917480469,0.3218616485595703,0
0.5647069931030273,0.3322059631347656,0
0.5596057891845703,0.3246047973632812,0
0.5748350143432617,0.3310071945190430,0
0.5841270446777344,0.3251924514770508,0
0.5606529235839843,0.3323982238769531,0
0.5704977035522460,0.3221311569213867,0
0.5622207641601562,0.3324554443359375,0
0.5650371551513672,0.3249526977539062,0
0.5750947952270508,0.3188255310058594,0
0.5559385299682617,0.3255535125732422,0
0.5501523971557617,0.3320915222167969,0
0.5777023315429687,0.3226879119873047,0
0.5656459808349609,0.3330041885375977,0
0.5606683731079102,0.3319816589355469,0
0.5754838943481445,0.3317928314208984,0
0.5841773986816406,0.3257268905639648,0
0.5612079620361328,0.3328840255737305,0
0.5699552536010742,0.3216636657714844,0
0.5598478317260742,0.3301088333129883,0
0.5615026473999023,0.3118474960327148,0
0.5682621002197266,0.3111980438232422,0
0.5455564498901367,0.3320835113525391,0
0.5715333938598632,0.3160634994506836,0
0.5381040573120117,0.3194761276245117,0
0.5346273422241211,0.3250974655151367,0
0.5444486618041992,0.3157236099243164,0
0.5563625335693360,0.3065214157104492,0
0.5254903793334961,0.3250997543334961,0
0.5343927383422852,0.3059377670288086,0
0.5419418334960937,0.3125610351562500,0
0.5314458847045899,0.3221683502197266,0
0.5427263259887695,0.3144807815551758,0
0.5416809082031250,0.3088840484619140,0
0.5315402984619141,0.3298170089721680,0
0.5398675918579101,0.3192558288574219,0
0.5487796783447265,0.3105079650878906,0
0.5388542175292969,0.3290594100952148,0
0.5495332717895508,0.3442428588867187,0
0.5670965194702148,0.3152750015258789,0
0.5534076690673828,0.3358154296875000,0
0.5460399627685547,0.3358154296875000,0
0.5518466949462890,0.3246162414550781,0
0.5543775558471680,0.3246162414550781,0
0.5622476577758789,0.3152154922485351,0
0.5438037872314453,0.3152154922485351,0
0.5548078536987304,0.3261960983276367,0
0.5549949645996094,0.3261960983276367,0
0.5531044006347656,0.3192535400390625,0
0.5711957931518554,0.3192535400390625,0
0.5575115203857421,0.3396766662597656,0
0.5499275207519531,0.3396766662597656,0
0.5555654525756836,0.3279699325561523,0
0.5577730178833008,0.3279699325561523,0
0.5653850555419921,0.3181097030639649,0
0.5465314865112304,0.3181097030639649,0
0.5575830459594726,0.3286308288574218,0
0.5607364654541015,0.3286308288574218,0
0.5552742004394531,0.3210794448852539,0
0.5727458953857422,0.3210794448852539,0
0.5422737121582031,0.3408462524414063,0
0.5564191818237304,0.3285770416259766,0
0.5582691192626953,0.3285770416259766,0
0.5655750274658203,0.3182161331176758,0
0.5723024368286133,0.3182161331176758,0
0.5572225570678710,0.3282136917114258,0
0.5600938796997070,0.3282136917114258,0
0.5542774200439453,0.3201484680175781,0
0.5689710617065430,0.3201484680175781,0
0.5575698852539063,0.3395473480224609,0
0.5494937896728516,0.3395473480224609,0
0.5547552108764648,0.3270744323730468,0
0.5564586639404296,0.3270744323730468,0
0.5637022018432617,0.3167003631591797,0
0.5705160140991211,0.3167003631591797,0
0.5552959442138672,0.3266538619995117,0
0.5584785461425781,0.3266538619995117,0
0.5528108596801757,0.3188581466674805,0
0.5676475524902344,0.3188581466674805,0
0.5565250396728515,0.3387680053710938,0
0.5400707244873046,0.3387680053710938,0
0.5542751312255859,0.3267253875732422,0
0.5562938690185547,0.3267253875732422,0
0.5639368057250976,0.3167919158935547,0
0.5712112426757813,0.3167919158935547,0
0.5560432434082031,0.3272787094116211,0
0.5592813491821289,0.3272787094116211,0
0.5538036346435546,0.3198348999023438,0
0.5686832427978515,0.3400794982910156,0
0.5499561309814452,0.3204820632934570,0
0.5578205108642578,0.3276906967163086,0
0.5466825485229492,0.3369729995727539,0
0.5575487136840820,0.3369729995727539,0
0.5608777999877930,0.3279047012329102,0
0.5562795639038086,0.3279047012329102,0
0.5701824188232422,0.3278778076171875,0
0.5588567733764648,0.3278778076171875,0
0.5513683319091797,0.3219623565673828,0
0.5571012496948242,0.3219623565673828,0
0.5592796325683593,0.3289873123168945,0
0.5669088363647461,0.3289873123168945,0
0.5480501174926757,0.3382232666015625,0
0.5588562011718750,0.3382232666015625,0
0.5623208999633789,0.3290639877319336,0
0.5576345443725585,0.3290639877319336,0
0.5716037750244141,0.3290542602539062,0
0.5601591110229492,0.3290542602539062,0
0.5526311874389648,0.3233768463134766,0
0.5582193374633789,0.3233768463134766,0
0.5604932785034179,0.3300207138061523,0
0.5678043365478516,0.3300207138061523,0
0.5493055343627929,0.3392211914062500,0
0.5599422454833984,0.3392211914062500,0
0.5634263992309571,0.3299314498901367,0
0.5577215194702149,0.3299314498901367,0
0.5725147247314453,0.3299228668212891,0
0.5614980697631836,0.3299228668212891,0
0.5535083770751953,0.3241613388061523,0
0.5820699691772461,0.3241613388061523,0
0.5612743377685546,0.3308006286621094,0
0.5517871856689452,0.3308006286621094,0
0.5499464035034179,0.3400262832641601,0
0.5515674591064453,0.3400262832641601,0
0.5640975952148437,0.3306261062622070,0
0.5582748413085937,0.3306261062622070,0
0.5729879379272461,0.3305339813232422,0
0.5620073318481446,0.3305339813232422,0
0.5539083480834961,0.3246385574340820,0
0.5825649261474609,0.3246385574340820,0
0.5617521286010742,0.3313219070434570,0
0.5523038864135742,0.3313219070434570,0
0.5503297805786133,0.3406190872192383,0
0.5611106872558593,0.3406190872192383,0
0.5645044326782226,0.3311330795288086,0
0.5587812423706054,0.3311330795288086,0
0.5732751846313476,0.3308395385742187,0
0.5624467849731445,0.3308395385742187,0
0.5542287826538086,0.3249607086181641,0
0.5828945159912109,0.3249607086181641,0
0.5619747161865234,0.3316188812255859,0
0.5692062377929688,0.3316188812255859,0
0.5506250381469726,0.3409046173095703,0
0.5520824432373047,0.3409046173095703,0
0.5649267196655273,0.3312589645385742,0
0.5601213455200195,0.3312589645385742,0
0.5734828948974610,0.3311428070068359,0
0.5626859664916992,0.3311428070068359,0
0.5545652389526367,0.3252325057983398,0
0.5603593826293946,0.3252325057983398,0
0.5622854232788086,0.3318992614746094,0
0.5692611694335937,0.3318992614746094,0
0.5508190155029297,0.3411306381225586,0
0.5615930557250977,0.3411306381225586,0
0.5652969360351562,0.3313877105712891,0
0.5605384826660156,0.3313877105712891,0
0.5736757278442383,0.3314426422119141,0
0.5624032974243164,0.3314426422119141,0
0.5548994064331054,0.3255289077758789,0
0.5607599258422852,0.3255289077758789,0
0.5626974105834961,0.3324056625366211,0
0.5699895858764649,0.3324056625366211,0
0.5514146804809570,0.3416433334350586,0
0.5621446609497071,0.3416433334350586,0
0.5659229278564453,0.3318866729736328,0
0.5600263595581054,0.3318866729736328,0
0.5741489410400390,0.3320634841918945,0
0.5630865097045898,0.3320634841918945,0
0.5553285598754882,0.3258539199829101,0
0.5838855743408203,0.3258539199829101,0
0.5631242752075195,0.3327529907226562,0
0.5701606750488281,0.3327529907226562,0
0.5514123916625976,0.3416948318481445,0
0.5616846084594727,0.3416948318481445,0
0.5649496078491211,0.3310472488403320,0
0.5581924438476562,0.3310472488403320,0
0.5712112426757813,0.3290880203247070,0
0.5579635620117187,0.3290880203247070,0
0.5495103836059571,0.3201873779296875,0
0.5755502700805664,0.3201873779296875,0
0.5542613983154296,0.3241945266723633,0
0.5597499847412110,0.3241945266723633,0
0.5396541595458985,0.3309654235839843,0
0.5489141464233398,0.3309654235839843,0
0.5512115478515625,0.3180387496948242,0
0.5436624526977539,0.3180387496948242,0
0.5562807083129883,0.3152469635009765,0
0.5445425033569335,0.3152469635009765,0
0.5354215621948242,0.3071262359619141,0
0.5408861160278320,0.3071262359619141,0
0.5424270629882812,0.3134788513183593,0
0.5490989685058594,0.3134788513183593,0
0.5308542251586914,0.3229494094848633,0
0.5322498321533203,0.3229494094848633,0
0.5458740234375000,0.3136774063110351,0
0.5419721603393555,0.3136774063110351,0
0.5549760818481445,0.3147983551025391,0
0.5451393127441406,0.3147983551025391,0
0.5376880645751952,0.3098613739013672,0
0.5444726943969727,0.3098613739013672,0
0.5470058441162109,0.3183013916015625,0
0.5546911239624023,0.3183013916015625,0
0.5370843887329101,0.3291824340820312,0
0.5393108367919922,0.3291824340820312,0
0.5529991149902344,0.3203853607177734,0
0.5494966506958008,0.3203853607177734,0
0.5619129180908203,0.3215332031250000,0
0.5521453857421875,0.3215332031250000,0
0.5442832946777344,0.3162780761718750,0
0.5739097595214844,0.3162780761718750,0
0.5534648895263672,0.3242694854736328,0
0.5607387542724609,0.3242694854736328,0
0.5429397583007812,0.3347906112670898,0
0.5540765762329102,0.3347906112670898,0
0.5584350585937500,0.3253749847412109,0
0.5545394897460937,0.3253749847412109,0
0.5666982650756835,0.3259706497192383,0
0.5565942764282227,0.3259706497192383,0
0.5486091613769531,0.3202640533447266,0
0.5780055999755859,0.3202640533447266,0
0.5575201034545898,0.3279510498046875,0
0.5644981384277343,0.3279510498046875,0
0.5465881347656250,0.3380035400390625,0
0.5573730468750000,0.3380035400390625,0
0.5617103576660156,0.3280689239501953,0
0.5573965072631836,0.3280689239501953,0
0.5693258285522461,0.3282955169677734,0
0.5586742401123047,0.3282955169677734,0
0.5506547927856446,0.3219577789306641,0
0.5793680191040039,0.3219577789306641,0
0.5588762283325195,0.3290702819824219,0
0.5486755371093750,0.3290702819824219,0
0.5473852157592773,0.3385711669921875,0
0.5579395294189453,0.3385711669921875,0
0.5620330810546875,0.3278446197509766,0
0.5570663452148438,0.3278446197509766,0
0.5689252853393555,0.3277633666992187,0
0.5584053039550781,0.3277633666992187,0
0.5496694564819335,0.3209146499633789,0
0.5558441162109374,0.3209146499633789,0
0.5575126647949219,0.3277032852172851,0
0.5469686508178710,0.3277032852172851,0
0.5456491470336914,0.3370222091674804,0
0.5560386657714843,0.3370222091674804,0
0.5602912902832031,0.3262475967407226,0
0.5538230895996094,0.3262475967407226,0
0.5669620513916015,0.3263402938842773,0
0.5567819595336914,0.3263402938842773,0
0.5567819595336914,0.3195636749267578,0
0.5546482086181640,0.3195636749267578,0
0.5564500808715820,0.3268913269042968,0
0.5462425231933593,0.3268913269042968,0
0.5450408935546874,0.3368860244750976,0
0.5460382461547851,0.3368860244750976,0
0.5602712631225586,0.3265966415405273,0
0.5560283660888672,0.3265966415405273,0
0.5672807693481445,0.3269170761108398,0
0.5571189880371094,0.3269170761108398,0
0.5489376068115234,0.3203504562377930,0
0.5778957366943359,0.3203504562377930,0
0.5576339721679687,0.3281324386596680,0
0.5475471496582031,0.3281324386596680,0
0.5462608337402344,0.3383142471313477,0
0.5475259780883789,0.3383142471313477,0
0.5617366790771484,0.3280237197875976,0
0.5576929092407227,0.3280237197875976,0
0.5687679290771485,0.3283985137939453,0
0.5586851119995117,0.3283985137939453,0
0.5504476547241210,0.3218250274658203,0
0.5796094894409179,0.3218250274658203,0
0.5592590332031250,0.3296459197998047,0
0.5490921020507812,0.3296459197998047,0
0.5480106353759765,0.3397195816040039,0
0.5490983963012696,0.3397195816040039,0
0.5634292602539063,0.3290845870971680,0
0.5592487335205077,0.3290845870971680,0
0.5700599670410156,0.3296562194824219,0
0.5600669860839843,0.3296562194824219,0
0.5519021987915039,0.3230770111083984,0
0.5808105468750000,0.3230770111083984,0
0.5604572296142578,0.3308023452758789,0
0.5501564025878906,0.3308023452758789,0
0.5492797851562500,0.3409372329711914,0
0.5501295089721679,0.3409372329711914,0
0.5646497726440429,0.3301380157470703,0
0.5603422164916992,0.3301380157470703,0
0.5709794998168946,0.3306587219238281,0
0.5609619140625000,0.3306587219238281,0
0.5527158737182617,0.3238946914672852,0
0.5816602706909180,0.3238946914672852,0
0.5614271163940430,0.3316062927246093,0
0.5510232925415038,0.3316062927246093,0
0.5502450942993163,0.3416250228881836,0
0.5507938385009765,0.3416250228881836,0
0.5653844833374023,0.3307897567749024,0
0.5612125396728516,0.3307897567749024,0
0.5715448379516601,0.3312772750854492,0
0.5616067886352539,0.3312772750854492,0
0.5533287048339843,0.3244714736938477,0
0.5820882797241210,0.3244714736938477,0
0.5618293762207031,0.3320795059204101,0
0.5513008117675781,0.3320795059204101,0
0.5508293151855469,0.3422492980957031,0
0.5513202667236328,0.3422492980957031,0
0.5658559799194336,0.3311754226684570,0
0.5617349624633788,0.3311754226684570,0
0.5716781616210938,0.3316703796386719,0
0.5618906021118164,0.3316703796386719,0
0.5533103942871094,0.3247421264648437,0
0.5820905685424804,0.3247421264648437,0
0.5620204925537109,0.3323003768920899,0
0.5514553070068359,0.3323003768920899,0
0.5509082794189453,0.3424736022949219,0
0.5512887954711914,0.3424736022949219,0
0.5660213470458985,0.3311840057373047,0
0.5616519927978515,0.3311840057373047,0
0.5715379714965820,0.3317424774169922,0
0.5615301132202148,0.3317424774169922,0
0.5532033920288085,0.3248931884765625,0
0.5816797256469727,0.3248931884765625,0
0.5618471145629883,0.3323810577392578,0
0.5510553359985352,0.3323810577392578,0
0.5508098602294922,0.3425697326660156,0
0.5510662078857421,0.3425697326660156,0
0.5659841537475586,0.3312086105346679,0
0.5616966247558594,0.3312086105346679,0
0.5714075088500976,0.3319313049316406,0
0.5616205215454101,0.3319313049316406,0
0.5529853820800781,0.3249401092529297,0
0.5818050384521484,0.3249401092529297,0
0.5620588302612305,0.3327289581298828,0
0.5511383056640625,0.3327289581298828,0
0.5509082794189453,0.3430263519287109,0
0.5513156890869141,0.3430263519287109,0
0.5663537979125977,0.3318466186523437,0
0.5622425079345703,0.3318466186523437,0
0.5717868804931641,0.3324171066284179,0
0.5621910095214844,0.3324171066284179,0
0.5534654617309570,0.3252204895019531,0
0.5823400497436523,0.3252204895019531,0
0.5625623703002930,0.3331460952758789,0
0.5513488769531250,0.3331460952758789,0
0.5509140014648437,0.3433004379272461,0
0.5508916854858398,0.3433004379272461,0
0.5657661437988281,0.3310804367065430,0
0.5606180191040039,0.3310804367065430,0
0.5694591522216796,0.3303062438964844,0
0.5581529617309570,0.3303062438964844,0
0.5489364624023437,0.3207504272460938,0
0.5754341125488281,0.3207504272460938,0
0.5550785064697266,0.3260135650634766,0
0.5415670394897460,0.3260135650634766,0
0.5405622482299804,0.3336027145385742,0
0.5386384963989258,0.3336027145385742,0
0.5534385681152344,0.3194303512573242,0
0.5470098495483399,0.3194303512573242,0
0.5556095123291015,0.3174791336059570,0
0.5441820144653320,0.3174791336059570,0
0.5350994110107422,0.3080532073974609,0
0.5625858306884766,0.3080532073974609,0
0.5428527832031250,0.3150197982788086,0
0.5314029693603516,0.3150197982788086,0
0.5310716629028320,0.3252656936645508,0
0.5315963745117187,0.3252656936645508,0
0.5471591949462891,0.3140750885009765,0
0.5436893463134765,0.3140750885009765,0
0.5530586242675781,0.3158535003662109,0
0.5444343566894531,0.3158535003662109,0
0.5360847473144531,0.3097166061401367,0
0.5657123565673828,0.3097166061401367,0
0.5464319229125977,0.3189960479736328,0
0.5365213394165039,0.3189960479736328,0
0.5365625381469726,0.3307491302490234,0
0.5378042221069336,0.3307491302490234,0
0.5535610198974609,0.3204071044921875,0
0.5504837036132812,0.3204071044921875,0
0.5595182418823242,0.3223136901855468,0
0.5512041091918946,0.3223136901855468,0
0.5427537918090820,0.3160211563110352,0
0.5724014282226563,0.3160211563110352,0
0.5528308868408203,0.3249481201171875,0
0.5425609588623047,0.3249481201171875,0
0.5425094604492188,0.3363389968872070,0
0.5433923721313476,0.3363389968872070,0
0.5590776443481446,0.3253812789916992,0
0.5556924819946288,0.3205638885498047,0
0.5644351959228515,0.3415117263793945,0
0.5474653244018555,0.3403993606567383,0
0.5474653244018555,0.3284156799316406,0
0.5568780899047852,0.3284156799316406,0
0.5628484725952149,0.3202045440673828,0
0.5735057830810547,0.3202045440673828,0
0.5566228866577149,0.3300956726074218,0
0.5564741134643555,0.3300956726074218,0
0.5554000854492187,0.3231370925903320,0
0.5694448471069335,0.3231370925903320,0
0.5585105895996093,0.3435390472412109,0
0.5422668457031250,0.3435390472412109,0
0.5568975448608399,0.3299228668212891,0
0.5452365875244141,0.3299228668212891,0
0.5637817382812500,0.3211990356445312,0
0.5740905761718750,0.3211990356445312,0
0.5572145462036132,0.3305459976196289,0
0.5565158843994140,0.3305459976196289,0
0.5553417205810547,0.3229459762573242,0
0.5687644958496093,0.3229459762573242,0
0.5578548431396484,0.3428180694580078,0
0.5413101196289062,0.3428180694580078,0
0.5557073593139649,0.3287973403930664,0
0.5436447143554687,0.3287973403930664,0
0.5621778488159179,0.3198148727416992,0
0.5724294662475585,0.3198148727416992,0
0.5553794860839844,0.3288797378540039,0
0.5545166015624999,0.3288797378540039,0
0.5533716201782226,0.3213260650634766,0
0.5667600631713867,0.3213260650634766,0
0.5559860229492187,0.3413291931152344,0
0.5396203994750977,0.3413291931152344,0
0.5540571212768555,0.3275739669799805,0
0.5424871444702148,0.3275739669799805,0
0.5611415863037109,0.3191522598266601,0
0.5717685699462890,0.3191522598266601,0
0.5548839569091797,0.3286485671997070,0
0.5545698165893554,0.3286485671997070,0
0.5535112380981445,0.3216762542724609,0
0.5672750473022461,0.3216762542724609,0
0.5565170288085938,0.3419059753417968,0
0.5403848648071289,0.3419059753417968,0
0.5550195693969726,0.3284271240234375,0
0.5436149597167969,0.3284271240234375,0
0.5622482299804688,0.3203979492187500,0
0.5730995178222656,0.3203979492187500,0
0.5561925888061523,0.3298553466796875,0
0.5559448242187500,0.3298553466796875,0
0.5549451828002929,0.3229104995727539,0
0.5686672210693359,0.3229104995727539,0
0.5579315185546875,0.3433776855468750,0
0.5420024871826171,0.3433776855468750,0
0.5565456390380860,0.3298473358154297,0
0.5450872421264649,0.3298473358154297,0
0.5635396957397460,0.3216516494750977,0
0.5746038436889648,0.3216516494750977,0
0.5575138092041015,0.3312423706054687,0
0.5572134017944336,0.3312423706054687,0
0.5561759948730468,0.3242500305175781,0
0.5697830200195312,0.3242500305175781,0
0.5591938018798828,0.3445037841796875,0
0.5433917999267578,0.3445037841796875,0
0.5577564239501953,0.3310443878173828,0
0.5464399337768554,0.3310443878173828,0
0.5647350311279297,0.3228887557983398,0
0.5760938644409179,0.3228887557983398,0
0.5588190078735351,0.3323879241943359,0
0.5584550857543945,0.3323879241943359,0
0.5576477050781250,0.3255535125732422,0
0.5708187103271484,0.3255535125732422,0
0.5443868637084961,0.3456556320190430,0
0.5510078430175781,0.3442525863647461,0
0.5510078430175781,0.3319759368896484,0
0.5606328964233398,0.3319759368896484,0
0.5656768798828125,0.3237424850463867,0
0.5771965026855469,0.3237424850463867,0
0.5597019195556641,0.3331300735473633,0
0.5656906127929687,0.3261606216430664,0
0.5690448760986327,0.3320463180541992,0
0.5805513381958007,0.3244171142578125,0
0.5597969055175781,0.3326854705810547,0
0.5662965774536133,0.3243043899536133,0
0.5602712631225586,0.3336141586303711,0
0.5589036941528320,0.3266012191772461,0
0.5694053649902343,0.3467794418334961,0
0.5615512847900390,0.3322483062744140,0
0.5499052047729492,0.3246322631835937,0
0.5502788543701171,0.3440305709838867,0
0.5667680740356446,0.3312858581542968,0
0.5613761901855469,0.3326637268066406,0
0.5618030548095703,0.3251718521118164,0
0.5604125976562500,0.3332159042358399,0
0.5667583465576171,0.3250127792358398,0
0.5608680725097656,0.3343076705932617,0
0.5671131134033203,0.3316371917724609,0
0.5699758529663086,0.3331489562988281,0
0.5816253662109375,0.3254465103149414,0
0.5490869522094727,0.3336839675903320,0
0.5786458969116210,0.3254951477050781,0
0.5671703338623046,0.3175420761108398,0
0.5625772476196289,0.3182064056396484,0
0.5592355728149414,0.3318632125854492,0
0.5567384719848633,0.3232177734375000,0
0.5428522109985351,0.3156412124633789,0
0.5429288864135742,0.3189336776733399,0
0.5567333221435546,0.3216808319091797,0
0.5477067947387695,0.3209152221679688,0
0.5481262207031250,0.3177738189697266,0
0.5449665069580077,0.3186407089233398,0
0.5456686019897461,0.3182281494140625,0
0.5342164993286133,0.3343099594116211,0
0.5506616592407226,0.3161281585693359,0
0.5430055618286133,0.3184713363647461,0
0.5465789794921875,0.3178115844726562,0
0.5466373443603515,0.3205444335937500,0
0.5484861373901367,0.3140110015869140,0
0.5390459060668945,0.3337148666381836,0
0.5566841125488281,0.3217666625976562,0
0.5492185592651367,0.3467742919921875,0
0.5531867980957031,0.3241716384887695,0
0.5532382965087891,0.3216470718383789,0
0.5549875259399414,0.3267534255981445,0
0.5731727600097656,0.3199293136596680,0
0.5554624557495117,0.3295314788818359,0
0.5624204635620117,0.3271265029907227,0
0.5648185729980468,0.3292631149291992,0
0.5573398590087890,0.3305294036865234,0
0.5589460372924805,0.3304149627685547,0
0.5487304687500000,0.3481430053710937,0
0.5654874801635742,0.3300430297851563,0
0.5575429916381835,0.3315719604492187,0
0.5602180480957031,0.3236549377441406,0
0.5590370178222656,0.3320617675781250,0
0.5770133972167969,0.3240320205688477,0
0.5495389938354492,0.3434600830078125,0
0.5656665802001953,0.3298009872436523,0
0.5668321609497070,0.3311737060546875,0
0.5594993591308594,0.3228469848632812,0
0.5581375122070312,0.3309602737426758,0
0.5627735137939452,0.3226976394653320,0
0.5571779251098633,0.3311502456665039,0
0.5638835906982421,0.3519784927368164,0
0.5648248672485351,0.3243547439575195,0
0.5416843414306640,0.3435636520385742,0
0.5576202392578125,0.3296567916870117,0
0.5576202392578125,0.3297615051269531,0
0.5458580017089844,0.3412136077880859,0
0.5602781295776367,0.3279499053955078,0
0.5555288314819335,0.3243684768676758,0
0.5422302246093750,0.3439195632934570,0
0.5583509445190430,0.3303869247436523,0
0.5761064529418946,0.3227983474731445,0
0.5483848571777343,0.3422544479370117,0
0.5647115707397461,0.3290496826171875,0
0.5658285140991210,0.3309104919433594,0
0.5592716217041015,0.3231073379516601,0
0.5587652206420898,0.3315038681030273,0
0.5638807296752929,0.3240400314331054,0
0.5495630264282226,0.3485967636108399,0
0.5661386489868164,0.3167741775512695,0
0.5670999526977539,0.3190355300903320,0
0.5601322174072265,0.3320863723754883,0
0.5797256469726563,0.3241979598999024,0
0.5483545303344727,0.3330350875854492,0
0.5648323059082031,0.3446416854858398,0
0.5599605560302734,0.3339609146118164,0
0.5681156158447266,0.3199802398681640,0
0.5611742019653320,0.3329452514648437,0
0.5517723083496093,0.3251409530639648,0
0.5491802215576171,0.3338092803955078,0
0.5656660079956054,0.3263013839721680,0
0.5603794097900391,0.3185869216918945,0
0.5686723709106445,0.3205816268920899,0
0.5523342132568360,0.3254436492919922,0
0.5614202499389648,0.3343105316162109,0
0.5661895751953124,0.3268781661987304,0
0.5613218307495117,0.3352764129638672,0
0.5686054229736328,0.3320686340332031,0
0.5689996719360352,0.3341182708740234,0
0.5526546478271485,0.3472440719604492,0
0.5627992630004882,0.3346487045288086,0
0.5666112899780273,0.3250396728515625,0
0.5616170883178710,0.3334362030029297,0
0.5658382415771485,0.3323719024658203,0
0.5628913879394531,0.3325733184814453,0
0.5471752166748046,0.3290250778198242,0
0.5502817153930664,0.3348186492919922,0
0.5803522109985352,0.3274011611938477,0
0.5601699829101562,0.3354108810424805,0
0.5687232971191406,0.3317270278930664,0
0.5672922134399414,0.3325269699096680,0
0.5487493515014649,0.3224744796752930,0
0.5569787979125976,0.3294227600097656,0
0.5582954406738281,0.3165664672851562,0
0.5510313034057617,0.3256404876708984,0
0.5572574615478515,0.3171323776245117,0
0.5549446105957031,0.3073144912719726,0
0.5459409713745117,0.3192226409912109,0
0.5636695861816406,0.3169715881347656,0
0.5475477218627930,0.3344375610351563,0
0.5378974914550781,0.3220041275024414,0
0.5494331359863281,0.3408376693725586,0
0.5398464202880859,0.3102338790893555,0
0.5617298126220703,0.3206382751464844,0
0.5442770004272460,0.3405338287353515,0
0.5556398391723633,0.3286571502685547,0
0.5593065261840821,0.3413057327270508,0
0.5559013366699218,0.3274034500122070,0
0.5555980682373046,0.3254796981811524,0
0.5663875579833985,0.3306163787841797,0
0.5585947036743164,0.3289810180664062,0
0.5435113906860352,0.3446897506713867,0
0.5587314605712891,0.3260805130004883,0
0.5587314605712891,0.3316022872924805,0
0.5630767822265624,0.3231348037719726,0
0.5630767822265624,0.3250871658325195,0
0.5591194152832031,0.3444883346557617,0
0.5670089721679688,0.3300041198730468,0
0.5583446502685546,0.3300041198730468,0
0.5662479400634766,0.3327295303344727,0
0.5606546401977539,0.3327295303344727,0
0.5503990173339843,0.3241510391235352,0
0.5604120254516601,0.3241510391235352,0
0.5609041213989258,0.3331449508666992,0
0.5472118377685546,0.3331449508666992,0
0.5506141662597656,0.3451526641845703,0
0.5483184814453125,0.3451526641845703,0
0.5670976638793945,0.3300212860107422,0
0.5635408401489258,0.3300212860107422,0
0.5656877517700195,0.3321573257446289,0
0.5599016189575196,0.3321573257446289,0
0.5494686126708984,0.3229362487792969,0
0.5591537475585937,0.3229362487792969,0
0.5592704772949219,0.3318317413330078,0
0.5453630447387695,0.3318317413330078,0
0.5487842559814453,0.3436117172241211,0
0.5464645385742187,0.3436117172241211,0
0.5653203964233399,0.3282852172851562,0
0.5561393737792969,0.3282852172851562,0
0.5637147903442382,0.3306100845336914,0
0.5581615447998046,0.3306100845336914,0
0.5479339599609375,0.3216854095458984,0
0.5579566955566406,0.3216854095458984,0
0.5582353591918945,0.3308830261230469,0
0.5611335754394531,0.3308830261230469,0
0.5483665466308594,0.3431013107299805,0
0.5570354461669922,0.3431013107299805,0
0.5652580261230469,0.3279064178466797,0
0.5622007369995117,0.3279064178466797,0
0.5639551162719726,0.3308698654174805,0
0.5581529617309570,0.3308698654174805,0
0.5484392166137695,0.3225299835205078,0
0.5585117340087891,0.3225299835205078,0
0.5589117050170899,0.3317510604858399,0
0.5619867324829101,0.3317510604858399,0
0.5493495941162109,0.3440906524658203,0
0.5582313537597656,0.3440906524658203,0
0.5664848327636719,0.3290651321411133,0
0.5634332656860351,0.3290651321411133,0
0.5650823593139648,0.3320119857788086,0
0.5594844818115234,0.3320119857788086,0
0.5497180938720703,0.3236240386962890,0
0.5786539077758789,0.3236240386962890,0
0.5603410720825195,0.3329875946044922,0
0.5632129669189453,0.3329875946044922,0
0.5508310317993164,0.3453489303588867,0
0.5593866348266602,0.3453489303588867,0
0.5678026199340820,0.3301734924316406,0
0.5585025787353516,0.3301734924316406,0
0.5661678314208984,0.3331867218017578,0
0.5609527587890625,0.3331867218017578,0
0.5508905410766601,0.3249338150024414,0
0.5797388076782226,0.3249338150024414,0
0.5614603042602538,0.3339992523193359,0
0.5476198196411133,0.3339992523193359,0
0.5521871566772460,0.3464012145996094,0
0.5494823455810547,0.3464012145996094,0
0.5688760757446288,0.3312417984008789,0
0.5594404220581054,0.3312417984008789,0
0.5670747756958008,0.3341686248779297,0
0.5618980407714843,0.3341686248779297,0
0.5516258239746094,0.3259397506713867,0
0.5622453689575195,0.3259397506713867,0
0.5623197555541992,0.3347385406494141,0
0.5484106063842773,0.3347385406494141,0
0.5531455993652343,0.3471061706542969,0
0.5501512527465821,0.3471061706542969,0
0.5697132110595703,0.3316898345947266,0
0.5600229263305664,0.3316898345947266,0
0.5675022125244140,0.3347625732421875,0
0.5624771118164062,0.3318054199218750,0
0.5808465957641601,0.3263866424560547,0
0.5626613616943359,0.3352512359619140,0
0.5652677536010742,0.3352512359619140,0
0.5536874771118164,0.3475816726684570,0
0.5617841720581055,0.3475816726684570,0
0.5700954437255860,0.3321189880371094,0
0.5671646118164062,0.3321189880371094,0
0.5677093505859375,0.3351453781127929,0
0.5624759674072265,0.3351453781127929,0
0.5523885726928711,0.3267488479614258,0
0.5636049270629883,0.3267488479614258,0
0.5631889343261719,0.3357078552246094,0
0.5655950546264649,0.3357078552246094,0
0.5541589736938476,0.3481533050537109,0
0.5621623992919922,0.3481533050537109,0
0.5705543518066406,0.3325269699096680,0
0.5676527023315430,0.3325269699096680,0
0.5680738449096679,0.3355808258056641,0
0.5628667831420898,0.3355808258056641,0
0.5527639389038086,0.3268054962158203,0
0.5640232086181640,0.3268054962158203,0
0.5631488800048828,0.3357730865478515,0
0.5483848571777343,0.3357730865478515,0
0.5534385681152344,0.3476240158081055,0
0.5608709335327148,0.3476240158081055,0
0.5684658050537109,0.3302730560302734,0
0.5578399658203125,0.3302730560302734,0
0.5635911941528320,0.3312269210815429,0
0.5574640274047852,0.3312269210815429,0
0.5456211090087890,0.3197748184204102,0
0.5719951629638672,0.3197748184204102,0
0.5535175323486328,0.3266447067260742,0
0.5370409011840820,0.3266447067260742,0
0.5418611526489258,0.3369827270507812,0
0.5488454818725585,0.3369827270507812,0
0.5563333511352538,0.3187557220458984,0
0.5454305648803711,0.3187557220458984,0
0.5515857696533203,0.3202211380004883,0
0.5461950302124023,0.3202211380004883,0
0.5353849411010742,0.3106149673461914,0
0.5464582443237305,0.3106149673461914,0
0.5459484100341797,0.3198595046997070,0
0.5317274093627929,0.3198595046997070,0
0.5372629165649414,0.3330888748168945,0
0.5345792770385742,0.3330888748168945,0
0.5548833847045899,0.3176897048950195,0
0.5453847885131836,0.3176897048950195,0
0.5528549194335938,0.3221494674682617,0
0.5489175796508788,0.3221494674682617,0
0.5390802383422851,0.3143297195434570,0
0.5512887954711914,0.3143297195434570,0
0.5511503219604492,0.3250385284423828,0
0.5537853240966797,0.3250385284423828,0
0.5432201385498047,0.3388429641723633,0
0.5410234451293945,0.3388429641723633,0
0.5613401412963867,0.3236377716064453,0
0.5592950820922852,0.3236377716064453,0
0.5589986801147461,0.3281587600708007,0
0.5553165435791015,0.3281587600708007,0
0.5453653335571289,0.3199768066406250,0
0.5575922012329101,0.3199768066406250,0
0.5570005416870117,0.3303216934204101,0
0.5591926574707031,0.3303216934204101,0
0.5485891342163086,0.3437129974365234,0
0.5458368301391602,0.3437129974365234,0
0.5661895751953124,0.3280265808105469,0
0.5638172149658203,0.3280265808105469,0
0.5632444381713867,0.3319210052490234,0
0.5590719223022461,0.3319210052490234,0
0.5491058349609375,0.3236183166503906,0
0.5781972885131835,0.3236183166503906,0
0.5603319168090820,0.3333177566528320,0
0.5621812820434570,0.3333177566528320,0
0.5515840530395507,0.3462461471557617,0
0.5596166610717773,0.3462461471557617,0
0.5686185836791992,0.3300647735595703,0
0.5581123352050781,0.3300647735595703,0
0.5649044036865234,0.3334991455078125,0
0.5602838516235351,0.3334991455078125,0
0.5502124786376953,0.3246242523193359,0
0.5788867950439452,0.3246242523193359,0
0.5609109878540038,0.3338172912597656,0
0.5459444046020507,0.3338172912597656,0
0.5517150878906250,0.3461505889892578,0
0.5593946456909179,0.3461505889892578,0
0.5682106018066406,0.3293249130249024,0
0.5650978088378906,0.3293249130249024,0
0.5637823104858398,0.3324628829956054,0
0.5595365524291992,0.3324628829956054,0
0.5486120223999024,0.3233379364013672,0
0.5770563125610352,0.3233379364013672,0
0.5591526031494141,0.3322986602783203,0
0.5438890457153320,0.3322986602783203,0
0.5501575469970703,0.3447206497192383,0
0.5460153579711914,0.3447206497192383,0
0.5666044235229492,0.3278285980224609,0
0.5635894775390625,0.3278285980224609,0
0.5621349334716796,0.3312641143798828,0
0.5581151962280273,0.3312641143798828,0
0.5474922180175781,0.3223039627075195,0
0.5601379394531250,0.3223039627075195,0
0.5584877014160156,0.3317928314208984,0
0.5435525894165039,0.3317928314208984,0
0.5499818801879882,0.3446262359619141,0
0.5575349807739257,0.3446262359619141,0
0.5667589187622070,0.3280706405639648,0
0.5641393661499023,0.3280706405639648,0
0.5625474929809570,0.3318872451782227,0
0.5587131500244140,0.3318872451782227,0
0.5587131500244140,0.3231245040893554,0
0.5611867904663086,0.3231245040893554,0
0.5594570159912109,0.3327655792236328,0
0.5447004318237304,0.3327655792236328,0
0.5511720657348632,0.3456830978393555,0
0.5473182678222656,0.3456830978393555,0
0.5680858612060546,0.3292367935180664,0
0.5655910491943359,0.3292367935180664,0
0.5637428283691406,0.3330814361572266,0
0.5596870422363281,0.3330814361572266,0
0.5495567321777344,0.3243375778198242,0
0.5784593582153320,0.3243375778198242,0
0.5607913970947266,0.3340049743652344,0
0.5460285186767578,0.3340049743652344,0
0.5524944305419922,0.3468326568603515,0
0.5485445022583008,0.3468326568603515,0
0.5694545745849610,0.3302186965942382,0
0.5668836593627929,0.3302186965942382,0
0.5647630691528320,0.3341703414916992,0
0.5608469009399414,0.3341703414916992,0
0.5506433486938477,0.3251111984252930,0
0.5794635772705078,0.3251111984252930,0
0.5619638442993163,0.3349657058715820,0
0.5468782424926758,0.3349657058715820,0
0.5534162521362305,0.3478076934814453,0
0.5492580413818359,0.3478076934814453,0
0.5704193115234375,0.3310632705688477,0
0.5677505493164062,0.3310632705688477,0
0.5655492782592774,0.3349588394165039,0
0.5616508483886719,0.3349588394165039,0
0.5514736175537109,0.3256307601928711,0
0.5803447723388672,0.3256307601928711,0
0.5626230239868164,0.3356426239013672,0
0.5474658966064453,0.3356426239013672,0
0.5540771484375000,0.3486625671386719,0
0.5499332427978515,0.3486625671386719,0
0.5710830688476562,0.3314775466918945,0
0.5685178756713867,0.3314775466918945,0
0.5660316467285156,0.3355310440063476,0
0.5621726989746093,0.3355310440063476,0
0.5521047592163085,0.3260679244995117,0
0.5808963775634766,0.3260679244995117,0
0.5630853652954101,0.3362302780151367,0
0.5478921890258789,0.3362302780151367,0
0.5545572280883789,0.3491071701049804,0
0.5504390716552734,0.3491071701049804,0
0.5717325210571289,0.3319988250732422,0
0.5689802169799805,0.3319988250732422,0
0.5664201736450195,0.3359521865844726,0
0.5626144409179688,0.3359521865844726,0
0.5525476455688476,0.3265640258789063,0
0.5812854766845703,0.3265640258789063,0
0.5635637283325196,0.3366886138916015,0
0.5482286453247071,0.3366886138916015,0
0.5548959732055664,0.3494304656982422,0
0.5505065917968750,0.3494304656982422,0
0.5719448089599609,0.3318935394287109,0
0.5688028335571289,0.3318935394287109,0
0.5658233642578124,0.3355321884155273,0
0.5611593246459960,0.3355321884155273,0
0.5509946823120117,0.3249074935913086,0
0.5779975891113281,0.3249074935913086,0
0.5600006103515625,0.3330951690673828,0
0.5424242019653320,0.3330951690673828,0
0.5488529205322266,0.3434217453002930,0
0.5420230865478516,0.3434217453002930,0
0.5632164001464843,0.3234832763671875,0
0.5582691192626953,0.3234832763671875,0
0.5548547744750977,0.3254373550415039,0
0.5492391586303711,0.3254373550415039,0
0.5388376235961914,0.3138221740722656,0
0.5656911849975585,0.3138221740722656,0
0.5480278015136718,0.3220916748046875,0
0.5312656402587891,0.3220916748046875,0
0.5384536743164062,0.3338819503784179,0
0.5332529067993164,0.3338819503784179,0
0.5552227020263671,0.3162397384643554,0
0.5526329040527344,0.3162397384643554,0
0.5493593215942383,0.3209026336669922,0
0.5462900161743164,0.3209026336669922,0
0.5365940093994140,0.3122085571289062,0
0.5658874511718750,0.3122085571289062,0
0.5487642288208008,0.3234249114990234,0
0.5341850280761719,0.3234249114990234,0
0.5416299819946289,0.3373283386230468,0
0.5380216598510742,0.3373283386230468,0
0.5602071762084960,0.3210393905639649,0
0.5586942672729492,0.3210393905639649,0
0.5551500320434570,0.3266304016113281,0
0.5527719497680664,0.3266304016113281,0
0.5429237365722656,0.3181560516357422,0
0.5724031448364257,0.3181560516357422,0
0.5551643371582031,0.3293397903442383,0
0.5404958724975586,0.3293397903442383,0
0.5479019165039062,0.3430595397949219,0
0.5553714752197265,0.3430595397949219,0
0.5661386489868164,0.3262212753295898,0
0.5643642425537109,0.3262212753295898,0
0.5604497909545898,0.3315393447875977,0
0.5577169418334961,0.3315393447875977,0
0.5442295074462891,0.3424879074096679,0
0.5594821929931640,0.3333395004272461,0
0.5603010177612304,0.3465980529785156,0
0.5476432800292969,0.3465980529785156,0
0.5696765899658203,0.3293357849121094,0
0.5675748825073242,0.3293357849121094,0
0.5632387161254883,0.3341165542602539,0
0.5602237701416015,0.3341165542602539,0
0.5500190734863281,0.3245172500610352,0
0.5786149978637695,0.3245172500610352,0
0.5612754821777344,0.3348901748657226,0
0.5456176757812500,0.3348901748657226,0
0.5532531738281250,0.3476577758789062,0
0.5481714248657227,0.3476577758789062,0
0.5704713821411133,0.3295835494995117,0
0.5676309585571289,0.3295835494995117,0
0.5630767822265624,0.3340410232543945,0
0.5596567153930664,0.3340410232543945,0
0.5495035171508789,0.3236898422241211,0
0.5775278091430663,0.3236898422241211,0
0.5601985931396484,0.3339225769042969,0
0.5441585540771484,0.3339225769042969,0
0.5518444061279296,0.3462163925170899,0
0.5463415145874023,0.3462163925170899,0
0.5687387466430663,0.3279659271240234,0
0.5656888961791992,0.3279659271240234,0
0.5610425949096679,0.3323524475097656,0
0.5577541351318359,0.3323524475097656,0
0.5478590011596679,0.3220979690551758,0
0.5760217666625976,0.3220979690551758,0
0.5587211608886719,0.3325693130493164,0
0.5428733825683594,0.3325693130493164,0
0.5506731033325195,0.3452922821044922,0
0.5455318450927734,0.3452922821044922,0
0.5682838439941406,0.3271837234497070,0
0.5657175064086913,0.3271837234497070,0
0.5606414794921875,0.3322780609130859,0
0.5578067779541015,0.3322780609130859,0
0.5481462478637695,0.3222867965698242,0
0.5765258789062500,0.3222867965698242,0
0.5592006683349610,0.3331489562988281,0
0.5435720443725586,0.3331489562988281,0
0.5514781951904296,0.3460298538208008,0
0.5465463638305664,0.3460298538208008,0
0.5692668914794922,0.3281147003173828,0
0.5669477462768554,0.3281147003173828,0
0.5617326736450196,0.3333028793334961,0
0.5591274261474609,0.3333028793334961,0
0.5492769241333008,0.3233785629272461,0
0.5777652740478515,0.3233785629272461,0
0.5604400634765625,0.3344558715820312,0
0.5448366165161133,0.3344558715820312,0
0.5528091430664063,0.3473213195800781,0
0.5477039337158203,0.3473213195800781,0
0.5707191467285156,0.3291652679443359,0
0.5682935714721680,0.3291652679443359,0
0.5629291534423828,0.3345422744750977,0
0.5604257583618164,0.3345422744750977,0
0.5505620956420898,0.3244977951049804,0
0.5789222717285156,0.3244977951049804,0
0.5616193771362304,0.3355545043945312,0
0.5458311080932617,0.3355545043945312,0
0.5538717269897461,0.3482872009277344,0
0.5486972808837890,0.3482872009277344,0
0.5717794418334960,0.3301528930664062,0
0.5693939208984374,0.3301528930664062,0
0.5638023376464844,0.3355070114135742,0
0.5612274169921875,0.3355070114135742,0
0.5514410018920898,0.3253664016723632,0
0.5797216415405273,0.3253664016723632,0
0.5625188827514648,0.3365512847900390,0
0.5467500686645508,0.3365512847900390,0
0.5544782638549804,0.3490842819213867,0
0.5494766235351562,0.3490842819213867,0
0.5726955413818359,0.3307582855224609,0
0.5703414916992188,0.3307582855224609,0
0.5643384933471679,0.3362520217895508,0
0.5617486953735351,0.3362520217895508,0
0.5519285202026367,0.3259111404418945,0
0.5799648284912109,0.3259111404418945,0
0.5630407333374023,0.3371028900146484,0
0.5471786499023438,0.3371028900146484,0
0.5552129745483398,0.3493778228759766,0
0.5500316619873047,0.3493778228759766,0
0.5733112335205078,0.3310667037963867,0
0.5709674835205077,0.3310667037963867,0
0.5646932601928710,0.3366514205932617,0
0.5622407913208007,0.3366514205932617,0
0.5523210525512695,0.3263626098632812,0
0.5803859710693359,0.3263626098632812,0
0.5634950637817383,0.3375303268432617,0
0.5475688934326172,0.3375303268432617,0
0.5556289672851562,0.3497714996337891,0
0.5501598358154297,0.3497714996337891,0
0.5737592697143554,0.3311754226684570,0
0.5710149765014648,0.3311754226684570,0
0.5642297744750976,0.3363452911376953,0
0.5610454559326171,0.3363452911376953,0
0.5509838104248047,0.3247215270996094,0
0.5774557113647460,0.3247215270996094,0
0.5601779937744140,0.3341377258300781,0
0.5420408248901367,0.3341377258300781,0
0.5496580123901367,0.3440122604370117,0
0.5418920516967773,0.3440122604370117,0
0.5651613235473633,0.3230283737182617,0
0.5605218887329101,0.3230283737182617,0
0.5535387039184571,0.3265285491943359,0
0.5493324279785156,0.3265285491943359,0
0.5392324447631835,0.3137809753417969,0
0.5654668807983398,0.3137809753417969,0
0.5484237670898438,0.3234832763671875,0
0.5310562133789062,0.3234832763671875,0
0.5391414642333984,0.3345348358154297,0
0.5330326080322265,0.3345348358154297,0
0.5548570632934570,0.3158157348632812,0
0.5411647796630860,0.3192403793334961,0
0.5468439102172852,0.3310083389282226,0
0.5422187805175781,0.3225351333618164,0
0.5489358901977539,0.3205547332763672,0
0.5423223495483398,0.3377552032470703,0
0.5464513778686523,0.3490282058715820,0
0.5524852752685546,0.3205324172973633,0
0.5403362274169922,0.3366737365722656,0
0.5487327575683594,0.3284322738647461,0
0.5777624130249023,0.3264163970947265,0
0.5486206054687500,0.3317276000976562,0
0.5679714202880859,0.3254636764526367,0
0.5589065551757812,0.3322322845458984,0
0.5480907440185546,0.3219577789306641,0
0.5655836105346680,0.3345022201538086,0
0.5594627380371093,0.3300647735595703,0
0.5589603424072266,0.3348890304565429,0
0.5550756454467773,0.3322820663452148,0
0.5616451263427734,0.3347906112670898,0
0.5504722595214844,0.3240463256835938,0
0.5611175537109375,0.3360843658447266,0
0.5605230331420898,0.3475811004638672,0
0.5596366882324219,0.3353925704956054,0
0.5547729492187500,0.3322849273681641,0
0.5597820281982422,0.3425651550292969,0
0.5496574401855469,0.3332731246948242,0
0.5597837448120117,0.3347860336303711,0
0.5516429901123047,0.3458873748779297,0
0.5699689865112304,0.3266286849975586,0
0.5525144577026367,0.3306352615356445,0
0.5578702926635742,0.3409217834472656,0
0.5519262313842773,0.3317939758300781,0
0.5582948684692383,0.3289203643798828,0
0.5504985809326172,0.3450244903564453,0
0.5673957824707031,0.3261211395263672,0
0.5521917343139648,0.3328376770019531,0
0.5580242156982421,0.3410333633422851,0
0.5530368804931640,0.3323352813720703,0
0.5590930938720703,0.3298192977905273,0
0.5513797760009765,0.3459377288818359,0
0.5687353134155273,0.3270326614379883,0
0.5533012390136719,0.3316989898681640,0
0.5593540191650390,0.3419815063476562,0
0.5673997879028320,0.3335489273071289,0
0.5603496551513671,0.3359041213989258,0
0.5526443481445312,0.3497434616088867,0
0.5721817016601562,0.3190967559814453,0
0.5542087554931641,0.3220430374145508,0
0.5606019973754882,0.3351991653442383,0
0.5686197280883789,0.3260902404785156,0
0.5614763259887695,0.3322425842285156,0
0.5824773788452148,0.3321859359741211,0
0.5734914779663086,0.3362909317016601,0
0.5734914779663086,0.3291990280151367,0
0.5623792648315430,0.3361186981201172,0
0.5515245437622071,0.3250494003295898,0
0.5696084976196288,0.3354091644287109,0
0.5614065170288086,0.3330482482910156,0
0.5611827850341796,0.3370176315307617,0
0.5742181777954102,0.3346075057983398,0
0.5628730773925781,0.3236280441284179,0
0.5522626876831055,0.3254104614257812,0
0.5704959869384766,0.3271957397460937,0
0.5621543884277344,0.3387073516845703,0
0.5616371154785156,0.3371046066284180,0
0.5609287261962891,0.3375526428222656,0
0.5604429244995117,0.3351774215698242,0
0.5500116348266602,0.3449111938476562,0
0.5528749465942383,0.3259140014648437,0
0.5633960723876953,0.3391222000122070,0
0.5553594589233398,0.3487873077392578,0
0.5613103866577148,0.3370502471923828,0
0.5543123245239258,0.3334161758422852,0
0.5586507797241210,0.3409572601318359,0
0.5476947784423828,0.3456150054931640,0
0.5553571701049804,0.3300991058349609,0
0.5450792312622070,0.3408456802368164,0
0.5370580673217773,0.3390970230102539,0
0.5586570739746094,0.3180215835571289,0
0.5457458496093750,0.3236452102661133,0
0.5470911026000976,0.3108444213867188,0
0.5548055648803710,0.3210954666137695,0
0.5677717208862304,0.3188129425048828,0
0.5389183044433593,0.3334247589111328,0
0.5595708847045898,0.3152652740478515,0
0.5483242034912109,0.3239341735839844,0
0.5368806838989257,0.3160348892211914,0
0.5464857101440429,0.3248170852661132,0
0.5738079071044921,0.3238712310791015,0
0.5514884948730469,0.3284368515014648,0
0.5657627105712890,0.3210668563842773,0
0.5545372009277344,0.3297632217407226,0
0.5455970764160156,0.3192037582397461,0
0.5648288726806641,0.3214656829833984,0
0.5560615539550781,0.3305253982543945,0
0.5567733764648437,0.3332422256469726,0
0.5709663391113281,0.3175621032714844,0
0.5592372894287109,0.3209890365600586,0
0.5499292373657226,0.3493600845336914,0
0.5769556045532226,0.3232400894165039,0
0.5447210311889649,0.3378421783447266,0
0.5472135543823242,0.3462198257446289,0
0.5589649200439453,0.3278892517089844,0
0.5571207046508789,0.3335912704467773,0
0.5483104705810546,0.3424919128417969,0
0.5510616302490234,0.3241750717163086,0
0.5611055374145507,0.3381900787353516,0
0.5531158447265625,0.3457088470458984,0
0.5592229843139648,0.3267013549804688,0
0.5520549774169922,0.3326517105102539,0
0.5492900848388672,0.3223566055297851,0
0.5573593139648437,0.3305191040039062,0
0.5539026260375977,0.3312274932861328,0
0.5569181442260742,0.3396389007568359,0
0.5484237670898438,0.3217792510986328,0
0.5586891174316406,0.3364986419677734,0
0.5510221481323242,0.3436180114746094,0
0.5574954986572266,0.3254442214965820,0
0.5509803771972656,0.3540258407592773,0
0.5585958480834960,0.3401418685913086,0
0.5494153976440429,0.3332101821899414,0
0.5597517013549804,0.3377798080444336,0
0.5523433685302734,0.3444906234741211,0
0.5712633132934570,0.3265102386474609,0
0.5520790100097656,0.3330854415893554,0
0.5599708557128906,0.3414573669433594,0
0.5508453369140625,0.3414573669433594,0
0.5700239181518555,0.3344821929931641,0
0.5610231399536133,0.3344821929931641,0
0.5593397140502929,0.3330179214477539,0
0.5825603485107421,0.3330179214477539,0
0.5600057601928711,0.3359579086303711,0
0.5591508865356445,0.3359579086303711,0
0.5530225753784179,0.3343402862548828,0
0.5565862655639648,0.3343402862548828,0
0.5609910964965820,0.3423156738281250,0
0.5520978927612304,0.3423156738281250,0
0.5714275360107421,0.3354177474975586,0
0.5621412277221679,0.3354177474975586,0
0.5603816986083984,0.3340061187744141,0
0.5836463928222656,0.3340061187744141,0
0.5609390258789062,0.3368139266967773,0
0.5753391265869140,0.3368139266967773,0
0.5536193847656250,0.3351253509521484,0
0.5570457458496093,0.3351253509521484,0
0.5617275238037109,0.3429536819458008,0
0.5529109954833984,0.3429536819458008,0
0.5722669601440430,0.3360368728637695,0
0.5628679275512695,0.3360368728637695,0
0.5609344482421875,0.3346504211425781,0
0.5554727554321289,0.3346504211425781,0
0.5615060806274413,0.3374685287475586,0
0.5761528015136719,0.3374685287475586,0
0.5541509628295899,0.3357742309570312,0
0.5623889923095703,0.3357742309570312,0
0.5624090194702148,0.3431774139404297,0
0.5511016845703125,0.3431774139404297,0
0.5729839324951171,0.3365804672241211,0
0.5634206771850586,0.3365804672241211,0
0.5611181259155273,0.3352088928222656,0
0.5845745086669921,0.3352088928222656,0
0.5620885848999023,0.3379840850830078,0
0.5765493392944335,0.3379840850830078,0
0.5544427871704102,0.3361164093017578,0
0.5625869750976562,0.3361164093017578,0
0.5622596740722656,0.3429336547851562,0
0.5501352310180664,0.3429336547851562,0
0.5719453811645507,0.3352397918701172,0
0.5573776245117187,0.3352397918701172,0
0.5579732894897461,0.3321578979492187,0
0.5793113708496094,0.3321578979492187,0
0.5563459396362305,0.3323101043701172,0
0.5694562911987304,0.3323101043701172,0
0.5458339691162110,0.3281381607055664,0
0.5529115676879882,0.3281381607055664,0
0.5517374038696289,0.3328811645507813,0
0.5416465759277344,0.3328811645507813,0
0.5602369308471680,0.3242929458618164,0
0.5492317199707031,0.3242929458618164,0
0.5459009170532226,0.3210611343383789,0
0.5680280685424804,0.3210611343383789,0
0.5454563140869141,0.3222988128662109,0
0.5435754776000976,0.3222988128662109,0
0.5372388839721679,0.3202795028686523,0
0.5456073760986327,0.3202795028686523,0
0.5458648681640624,0.3275859832763672,0
0.5374031066894531,0.3275859832763672,0
0.5575172424316406,0.3221242904663086,0
0.5480352401733398,0.3221242904663086,0
0.5461910247802734,0.3220441818237305,0
0.5419023513793945,0.3220441818237305,0
0.5484134674072265,0.3255374908447266,0
0.5635974884033202,0.3255374908447266,0
0.5420042037963867,0.3251884460449219,0
0.5508865356445313,0.3251884460449219,0
0.5515136718750000,0.3328262329101562,0
0.5415166854858399,0.3328262329101562,0
0.5637044906616211,0.3279481887817383,0
0.5541881561279297,0.3279481887817383,0
0.5520910263061524,0.3277690887451172,0
0.5482223510742187,0.3277690887451172,0
0.5545183181762695,0.3311548233032227,0
0.5693161010742187,0.3311548233032227,0
0.5477508544921875,0.3306472778320312,0
0.5516693115234375,0.3306472778320312,0
0.5569072723388672,0.3376241683959961,0
0.5487819671630859,0.3376241683959961,0
0.5687467575073242,0.3324800491333008,0
0.5590375900268555,0.3324800491333008,0
0.5566326141357422,0.3319959640502930,0
0.5527450561523437,0.3319959640502930,0
0.5586072921752929,0.3347808837890625,0
0.5734159469604492,0.3347808837890625,0
0.5510684967041015,0.3339145660400391,0
0.5595920562744140,0.3339145660400391,0
0.5598552703857421,0.3398191452026367,0
0.5491870880126953,0.3398191452026367,0
0.5711992263793945,0.3343746185302734,0
0.5608795166015624,0.3343746185302734,0
0.5580963134765625,0.3333337783813476,0
0.5819824218749999,0.3333337783813476,0
0.5594083786010742,0.3353542327880859,0
0.5737003326416016,0.3353542327880859,0
0.5508602142333984,0.3340147018432617,0
0.5593019485473633,0.3340147018432617,0
0.5592269897460938,0.3392097473144531,0
0.5507818222045898,0.3392097473144531,0
0.5701915740966796,0.3332113265991211,0
0.5566108703613281,0.3332113265991211,0
0.5562807083129883,0.3317745208740234,0
0.5798789978027343,0.3317745208740234,0
0.5573610305786133,0.3335775375366211,0
0.5717113494873046,0.3335775375366211,0
0.5486984252929688,0.3321916580200195,0
0.5571933746337890,0.3321916580200195,0
0.5572299957275391,0.3372138977050781,0
0.5490320205688476,0.3372138977050781,0
0.5683891296386718,0.3316680908203125,0
0.5577392578125000,0.3316680908203125,0
0.5547466278076172,0.3306518554687500,0
0.5789737701416016,0.3306518554687500,0
0.5565301895141601,0.3328731536865234,0
0.5548862457275391,0.3328731536865234,0
0.5483087539672852,0.3320274353027344,0
0.5514341354370117,0.3320274353027344,0
0.5574794769287109,0.3373231887817383,0
0.5495916366577148,0.3373231887817383,0
0.5691061019897461,0.3323604583740234,0
0.5585609436035156,0.3323604583740234,0
0.5554407119750976,0.3316051483154297,0
0.5520978927612304,0.3316051483154297,0
0.5576786041259766,0.3338716506958008,0
0.5721267700195313,0.3338716506958008,0
0.5495853424072266,0.3331809997558594,0
0.5526712417602538,0.3331809997558594,0
0.5587469100952148,0.3384944915771484,0
0.5488174438476562,0.3384944915771484,0
0.5706562042236328,0.3336141586303711,0
0.5599966049194336,0.3336141586303711,0
0.5566869735717773,0.3329910278320312,0
0.5814582824707031,0.3329910278320312,0
0.5590341567993163,0.3351694107055664,0
0.5573999404907226,0.3351694107055664,0
0.5507028579711913,0.3346097946166992,0
0.5596950531005859,0.3346097946166992,0
0.5599576950073242,0.3394294738769531,0
0.5523611068725586,0.3394294738769531,0
0.5719528198242188,0.3346630096435547,0
0.5589437484741211,0.3346630096435547,0
0.5577793121337891,0.3339820861816406,0
0.5548513412475585,0.3339820861816406,0
0.5600692749023437,0.3361581802368164,0
0.5743909835815429,0.3361581802368164,0
0.5516933441162110,0.3354824066162109,0
0.5605167388916016,0.3354824066162109,0
0.5608434677124023,0.3401372909545898,0
0.5509878158569336,0.3401372909545898,0
0.5727012634277343,0.3354543685913086,0
0.5597139358520508,0.3354543685913086,0
0.5584070205688476,0.3346858978271484,0
0.5832458496093750,0.3346858978271484,0
0.5607868194580078,0.3368591308593750,0
0.5748287200927734,0.3368591308593750,0
0.5523983001708984,0.3363430023193359,0
0.5611032485961914,0.3363430023193359,0
0.5613801956176757,0.3403861999511719,0
0.5537841796874999,0.3403861999511719,0
0.5733770370483399,0.3360179901123047,0
0.5623512268066406,0.3360179901123047,0
0.5586988449096679,0.3352895736694336,0
0.5562692642211914,0.3450622558593750,0
0.5591159820556640,0.3372871398925781,0
0.5529275894165039,0.3370193481445312,0
0.5558492660522460,0.3370193481445312,0
0.5618860244750976,0.3407655715942383,0
0.5542934417724609,0.3407655715942383,0
0.5738571166992187,0.3363212585449218,0
0.5626115798950195,0.3363212585449218,0
0.5588928222656250,0.3353971481323242,0
0.5562526702880859,0.3353971481323242,0
0.5610425949096679,0.3368923187255859,0
0.5578027725219726,0.3368923187255859,0
0.5513591766357422,0.3356208801269531,0
0.5526489257812500,0.3356208801269531,0
0.5585140228271485,0.3371623992919922,0
0.5467815399169922,0.3371623992919922,0
0.5680423736572265,0.3305437088012695,0
0.5552667617797852,0.3305437088012695,0
0.5499807357788086,0.3271465301513672,0
0.5727035522460937,0.3271465301513672,0
0.5500705718994140,0.3266258239746094,0
0.5621812820434570,0.3266258239746094,0
0.5387557983398438,0.3238420486450195,0
0.5394802093505859,0.3238420486450195,0
0.5453767776489258,0.3247512817382812,0
0.5344825744628906,0.3247512817382812,0
0.5560358047485351,0.3194761276245117,0
0.5421409606933594,0.3194761276245117,0
0.5402830123901367,0.3183254241943359,0
0.5383752822875977,0.3183254241943359,0
0.5432785034179687,0.3206657409667968,0
0.5571807861328125,0.3206657409667968,0
0.5353878021240234,0.3217042922973632,0
0.5449075698852539,0.3217042922973632,0
0.5458877563476562,0.3255815505981445,0
0.5377355575561523,0.3255815505981445,0
0.5594753265380860,0.3232303619384765,0
0.5474395751953125,0.3232303619384765,0
0.5452611923217773,0.3235359191894531,0
0.5445442199707031,0.3235359191894531,0
0.5497358322143554,0.3268787384033203,0
0.5637062072753906,0.3268787384033203,0
0.5420053482055663,0.3284992218017578,0
0.5517230987548828,0.3284992218017578,0
0.5526529312133789,0.3319719314575195,0
0.5445957183837891,0.3319719314575195,0
0.5660293579101562,0.3292493820190430,0
0.5536548614501953,0.3292493820190430,0
0.5512910842895508,0.3291074752807617,0
0.5776828765869141,0.3291074752807617,0
0.5553606033325195,0.3320617675781250,0
0.5529808044433594,0.3320617675781250,0
0.5470968246459961,0.3335689544677734,0
0.5505615234375000,0.3335689544677734,0
0.5574691772460937,0.3360660552978516,0
0.5492792129516602,0.3360660552978516,0
0.5705818176269531,0.3331850051879883,0
0.5578308105468750,0.3331850051879883,0
0.5550287246704101,0.3325532913208007,0
0.5809032440185546,0.3325532913208007,0
0.5585729598999023,0.3348226547241211,0
0.5553457260131835,0.3348226547241211,0
0.5494274139404297,0.3359527587890625,0
0.5522323608398437,0.3359527587890625,0
0.5591714859008788,0.3373306274414062,0
0.5503761291503906,0.3373306274414062,0
0.5714675903320312,0.3337995529174805,0
0.5580345153808594,0.3337995529174805,0
0.5551042556762695,0.3324485778808594,0
0.5803356170654297,0.3324485778808594,0
0.5579429626464844,0.3341657638549805,0
0.5538127899169921,0.3341657638549805,0
0.5481874465942382,0.3349662780761719,0
0.5503801345825196,0.3349662780761719,0
0.5573118209838867,0.3353925704956054,0
0.5482069015502929,0.3353925704956054,0
0.5692640304565429,0.3317676544189453,0
0.5556501388549805,0.3317676544189453,0
0.5522335052490234,0.3302907943725586,0
0.5778711318969726,0.3302907943725586,0
0.5555934906005859,0.3321733474731445,0
0.5513912200927734,0.3321733474731445,0
0.5462018966674804,0.3335323333740234,0
0.5487619400024414,0.3335323333740234,0
0.5558040618896484,0.3338367462158203,0
0.5472730636596680,0.3338367462158203,0
0.5684766769409180,0.3310626983642578,0
0.5552936553955078,0.3310626983642578,0
0.5520521163940429,0.3299480438232422,0
0.5782110214233398,0.3299480438232422,0
0.5558120727539062,0.3322660446166992,0
0.5518535614013672,0.3322660446166992,0
0.5467151641845703,0.3344244003295898,0
0.5496076583862305,0.3344244003295898,0
0.5567584991455078,0.3347259521484375,0
0.5485891342163086,0.3347259521484375,0
0.5697498321533203,0.3322660446166992,0
0.5567333221435546,0.3322660446166992,0
0.5532943725585937,0.3312028884887695,0
0.5796072006225585,0.3312028884887695,0
0.5572723388671875,0.3336816787719726,0
0.5531593322753906,0.3336816787719726,0
0.5481588363647460,0.3361444473266602,0
0.5511463165283202,0.3361444473266602,0
0.5520910263061524,0.3262521743774414,0
0.5748104095458985,0.3262521743774414,0
0.5712524414062500,0.3405326843261718,0
0.5546236038208008,0.3321905136108398,0
0.5810205459594726,0.3321905136108398,0
0.5587818145751953,0.3350000381469727,0
0.5543472290039062,0.3350000381469727,0
0.5496288299560547,0.3376127243041992,0
0.5523994445800781,0.3376127243041992,0
0.5596166610717773,0.3371149063110351,0
0.5515708923339844,0.3371149063110351,0
0.5725210189819335,0.3347648620605468,0
0.5594318389892577,0.3347648620605468,0
0.5554607391357421,0.3328748703002929,0
0.5819715499877930,0.3328748703002929,0
0.5596990585327148,0.3359178543090820,0
0.5548501968383789,0.3359178543090820,0
0.5504213333129883,0.3388200759887695,0
0.5531599044799804,0.3388200759887695,0
0.5603593826293946,0.3376550674438477,0
0.5526700973510742,0.3376550674438477,0
0.5731887817382812,0.3354446411132813,0
0.5600835800170898,0.3354446411132813,0
0.5560535430908203,0.3333658218383789,0
0.5826507568359375,0.3333658218383789,0
0.5602981567382812,0.3365186691284179,0
0.5551809310913086,0.3365186691284179,0
0.5508470535278320,0.3397550582885742,0
0.5535467147827148,0.3397550582885742,0
0.5609161376953125,0.3380870819091797,0
0.5533853530883789,0.3380870819091797,0
0.5738416671752929,0.3359344482421875,0
0.5606695175170898,0.3359344482421875,0
0.5563785552978515,0.3339609146118164,0
0.5831130981445313,0.3339609146118164,0
0.5607770919799805,0.3369832992553711,0
0.5554876327514648,0.3369832992553711,0
0.5509809494018555,0.3405979156494141,0
0.5535879135131836,0.3405979156494141,0
0.5614706039428711,0.3383960723876953,0
0.5538436889648437,0.3383960723876953,0
0.5742404937744140,0.3361478805541992,0
0.5607456207275391,0.3361478805541992,0
0.5561388015747070,0.3336479187011719,0
0.5822153091430664,0.3336479187011719,0
0.5596515655517578,0.3355762481689453,0
0.5525259017944336,0.3355762481689453,0
0.5477989196777343,0.3376716613769531,0
0.5484272003173828,0.3376716613769531,0
0.5558967590332031,0.3327850341796875,0
0.5461561203002929,0.3327850341796875,0
0.5657930374145508,0.3282348632812500,0
0.5503120422363281,0.3282348632812500,0
0.5452188491821289,0.3233722686767578,0
0.5700164794921875,0.3233722686767578,0
0.5472942352294922,0.3240589141845703,0
0.5391992568969727,0.3240589141845703,0
0.5348974227905273,0.3260232925415039,0
0.5359130859375000,0.3260232925415039,0
0.5438753128051758,0.3216127395629882,0
0.5360578536987305,0.3216127395629882,0
0.5561754226684570,0.3196260452270508,0
0.5429689407348632,0.3196260452270508,0
0.5385440826416016,0.3172611236572265,0
0.5660900115966797,0.3172611236572265,0
0.5442014694213867,0.3217512130737304,0
0.5388530731201172,0.3217512130737304,0
0.5352687835693359,0.3274543762207031,0
0.5387689590454101,0.3274543762207031,0
0.5472833633422851,0.3253377914428711,0
0.5412374496459961,0.3253377914428711,0
0.5613773345947265,0.3249303817749024,0
0.5493684768676758,0.3249303817749024,0
0.5447765350341797,0.3235359191894531,0
0.5731269836425781,0.3235359191894531,0
0.5510084152221679,0.3281644821166992,0
0.5455867767333984,0.3281644821166992,0
0.5419790267944335,0.3342607498168945,0
0.5453498840332031,0.3342607498168945,0
0.5538665771484375,0.3310913085937500,0
0.5477811813354492,0.3310913085937500,0
0.5675107955932617,0.3305299758911133,0
0.5552518844604492,0.3305299758911133,0
0.5504110336303710,0.3285146713256836,0
0.5786893844604492,0.3285146713256836,0
0.5563476562499999,0.3330900192260742,0
0.5503257751464844,0.3330900192260742,0
0.5470705032348633,0.3390758514404297,0
0.5571836471557617,0.3264478683471679,0
0.5584745407104492,0.3349811553955078,0
0.5521493911743164,0.3349811553955078,0
0.5714275360107421,0.3339757919311523,0
0.5586284637451172,0.3339757919311523,0
0.5535839080810546,0.3314174652099609,0
0.5811584472656249,0.3314174652099609,0
0.5560976028442383,0.3350698471069336,0
0.5686620712280274,0.3350698471069336,0
0.5486331939697265,0.3405601501464844,0
0.5508619308471679,0.3405601501464844,0
0.5593425750732421,0.3353267669677734,0
0.5524686813354492,0.3353267669677734,0
0.5589694976806641,0.3326013565063476,0
0.5589694976806641,0.3448551177978516,0
0.5550933837890625,0.3359195709228516,0
0.5440790176391601,0.3359195709228516,0
0.5666290283203125,0.3232824325561524,0
0.5463872909545898,0.3506080627441406,0
0.5561285018920898,0.3335020065307617,0
0.5552930831909180,0.3335020065307617,0
0.5516727447509765,0.3250516891479492,0
0.5715723037719727,0.3250516891479492,0
0.5564500808715820,0.3429370880126953,0
0.5392536163330078,0.3429370880126953,0
0.5527851104736328,0.3338310241699219,0
0.5420991897583007,0.3338310241699219,0
0.5646383285522460,0.3216053009033203,0
0.5446552276611328,0.3216053009033203,0
0.5548135757446289,0.3324874877929687,0
0.5544570922851563,0.3324874877929687,0
0.5514490127563476,0.3248262405395508,0
0.5714086532592774,0.3248262405395508,0
0.5563665390014648,0.3432907104492187,0
0.5398052215576171,0.3432907104492187,0
0.5534173965454101,0.3342161178588867,0
0.5427801132202148,0.3342161178588867,0
0.5650915145874024,0.3226524353027344,0
0.5698917388916015,0.3226524353027344,0
0.5559740066528320,0.3335580825805664,0
0.5558320999145507,0.3335580825805664,0
0.5526718139648438,0.3262590408325195,0
0.5728134155273438,0.3262590408325195,0
0.5578336715698242,0.3448030471801758,0
0.5413764953613281,0.3448030471801758,0
0.5549680709838867,0.3355396270751953,0
0.5445344924926757,0.3355396270751953,0
0.5667137145996094,0.3242769241333008,0
0.5717365264892578,0.3242769241333008,0
0.5574966430664062,0.3350177764892578,0
0.5572620391845703,0.3350177764892578,0
0.5542602539062500,0.3276729583740234,0
0.5741889953613281,0.3276729583740234,0
0.5593139648437500,0.3462123870849609,0
0.5427898406982422,0.3462123870849609,0
0.5565587997436523,0.3366514205932617,0
0.5458843231201171,0.3366514205932617,0
0.5676630020141601,0.3255489349365234,0
0.5729598999023438,0.3255489349365234,0
0.5587388992309570,0.3362073898315430,0
0.5584642410278320,0.3362073898315430,0
0.5555711746215820,0.3286788940429687,0
0.5750741958618164,0.3286788940429687,0
0.5602581024169921,0.3474740982055664,0
0.5436292648315429,0.3474740982055664,0
0.5575344085693359,0.3373151779174804,0
0.5459587097167968,0.3373151779174804,0
0.5681968688964844,0.3262973785400390,0
0.5487934112548828,0.3368785858154297,0
0.5614437103271485,0.3364677429199219,0
0.5729410171508789,0.3357530593872070,0
0.5821529388427734,0.3313390731811524,0
0.5582759857177734,0.3367286682128906,0
0.5688222885131836,0.3269565582275391,0
0.5601516723632812,0.3375543594360351,0
0.5760583877563477,0.3298484802246094,0
0.5606323242187500,0.3487941741943359,0
0.5817598342895508,0.3310157775878906,0
0.5499303817749023,0.3357839584350586,0
0.5471546173095703,0.3422292709350586,0
0.5565307617187499,0.3319782257080078,0
0.5673763275146484,0.3238712310791015,0
0.5337215423583984,0.3408582687377930,0
0.5478229522705078,0.3227794647216797,0
0.5540811538696289,0.3301614761352539,0
0.5431789398193360,0.3155479431152344,0
0.5391672134399413,0.3409446716308593,0
0.5425769805908203,0.3321224212646484,0
0.5349145889282226,0.3206703186035156,0
0.5427824020385742,0.3202119827270508,0
0.5321451187133789,0.3300401687622070,0
0.5431388854980469,0.3223669052124024,0
0.5424476623535156,0.3233190536499023,0
0.5478075027465820,0.3373386383056641,0
0.5493083953857422,0.3267087936401367,0
0.5410921096801757,0.3178121566772461,0
0.5502130508422851,0.3432460784912109,0
0.5550453186035156,0.3318443298339844,0
0.5707557678222656,0.3180330276489258,0
0.5541772842407227,0.3471342086791992,0
0.5654291152954102,0.3252433776855468,0
0.5551311492919921,0.3274160385131836,0
0.5553377151489257,0.3338859558105469,0
0.5447748184204101,0.3423316955566406,0
0.5542213439941406,0.3315244674682617,0
0.5526832580566406,0.3253515243530273,0
0.5554115295410156,0.3449901580810547,0
0.5529842376708984,0.3316217422485351,0
0.5546836853027344,0.3222507476806640,0
0.5429214477539063,0.3410568237304688,0
0.5583011627197265,0.3304212570190430,0
0.5519302368164062,0.3534444808959961,0
0.5552341461181640,0.3298713684082031,0
0.5534826278686523,0.3276769638061524,0
0.5553737640380859,0.3206434249877930,0
0.5441545486450196,0.3231748580932617,0
0.5599925994873046,0.3170705795288086,0
0.5560014724731445,0.3315942764282226,0
0.5564838409423828,0.3322208404541016,0
0.5770099639892577,0.3254545211791992,0
0.5553491592407226,0.3335031509399414,0
0.5632450103759765,0.3247758865356445,0
0.5564746856689453,0.3347133636474609,0
0.5619775772094726,0.3328033447265625,0
0.5672367095947265,0.3337171554565430,0
0.5492528915405274,0.3265926361083984,0
0.5569976806640625,0.3348449707031250,0
0.5643556594848632,0.3237630844116211,0
0.5578817367553711,0.3358360290527344,0
0.5635316848754882,0.3195945739746094,0
0.5678667068481446,0.3216287612915039,0
0.5501283645629883,0.3477069854736328,0
0.5791992187500000,0.3348501205444336,0
0.5482143402099610,0.3356483459472656,0
0.5585758209228515,0.3464830398559570,0
0.5585758209228515,0.3366216659545898,0
0.5573083877563476,0.3294193267822266,0
0.5598993301391602,0.3497880935668945,0
0.5505065917968750,0.3359024047851563,0
0.5598352432250976,0.3359756469726562,0
0.5486406326293946,0.3466930389404297,0
0.5583200454711914,0.3363933563232422,0
0.5657215118408203,0.3332387924194336,0
0.5378271102905273,0.3158866882324219,0
0.5406303405761719,0.3197336196899414,0
0.5498954772949218,0.3138805389404297,0
0.5394430160522461,0.3305105209350586,0
0.5222030639648437,0.3139389038085937,0
0.5357728958129883,0.3044757843017578,0
0.5239637374877929,0.3234283447265625,0
0.5399837493896484,0.3101251602172851,0
0.5323150634765624,0.3067028045654297,0
0.5357654571533202,0.3118377685546875,0
0.5364727020263672,0.3154569625854492,0
0.5384084701538085,0.3079061508178711,0
0.5578931808471680,0.3098585128784180,0
0.5482343673706055,0.3050651550292969,0
0.5459890365600586,0.3180501937866211,0
0.5446695327758789,0.3213861465454101,0
0.5653541564941406,0.3144876480102539,0
0.5453722000122070,0.3245922088623047,0
0.5511085510253906,0.3175317764282227,0
0.5472730636596680,0.3268701553344727,0
0.5552610397338867,0.3213535308837890,0
0.5562171936035156,0.3269760131835938,0
0.5408535003662109,0.3194566726684570,0
0.5507720947265625,0.3229928970336914,0
0.5557342529296875,0.3204465866088867,0
0.5518135070800781,0.3309516906738281,0
0.5598020553588867,0.3524814605712890,0
0.5594873428344727,0.3250413894653320,0
0.5434375762939453,0.3435436248779297,0
0.5532451629638672,0.3298994064331054,0
0.5569416046142578,0.3214021682739258,0
0.5525138854980468,0.3426446914672852,0
0.5511508941650390,0.3521472930908203,0
0.5587938308715820,0.3429565429687500,0
0.5425077438354492,0.3423265457153320,0
0.5525150299072266,0.3294141769409180,0
0.5423532485961914,0.3413148880004883,0
0.5396965026855468,0.3413148880004883,0
0.5591869354248047,0.3257995605468750,0
0.5498805999755859,0.3257995605468750,0
0.5572700500488281,0.3284214019775391,0
0.5519376754760742,0.3284214019775391,0
0.5416803359985352,0.3197982788085937,0
0.5522518157958984,0.3197982788085937,0
0.5524515151977539,0.3291481018066406,0
0.5548822402954101,0.3291481018066406,0
0.5430233001708984,0.3417989730834961,0
0.5517065048217773,0.3417989730834961,0
0.5603473663330077,0.3263442993164062,0
0.5508304595947265,0.3263442993164062,0
0.5583171844482422,0.3297088623046875,0
0.5534940719604492,0.3297088623046875,0
0.5432298660278320,0.3213953018188476,0
0.5726102828979492,0.3213953018188476,0
0.5543849945068359,0.3309986114501953,0
0.5567899703979492,0.3309986114501953,0
0.5454637527465820,0.3437810897827148,0
0.5537961959838867,0.3437810897827148,0
0.5625761032104492,0.3279842376708984,0
0.5528800964355468,0.3279842376708984,0
0.5599599838256836,0.3316022872924805,0
0.5555025100708008,0.3316022872924805,0
0.5449825286865234,0.3229694366455078,0
0.5743663787841796,0.3229694366455078,0
0.5561656951904297,0.3325389862060547,0
0.5416952133178711,0.3325389862060547,0
0.5471654891967773,0.3452974319458008,0
0.5552249908447265,0.3452974319458008,0
0.5642148971557617,0.3291549682617188,0
0.5541778564453125,0.3291549682617188,0
0.5608257293701172,0.3327701568603516,0
0.5566829681396485,0.3327701568603516,0
0.5585632324218750,0.3239273071289062,0
0.5585632324218750,0.3329452514648437,0
0.5459655761718750,0.3336479187011719,0
0.5590381622314453,0.3272758483886719,0
0.5561800003051758,0.3465024948120117,0
0.5653987884521484,0.3298702239990234,0
0.5626482009887696,0.3298702239990234,0
0.5614528656005859,0.3335374832153320,0
0.5574182510375977,0.3335374832153320,0
0.5468273162841797,0.3245916366577148,0
0.5595600128173828,0.3245916366577148,0
0.5578754425048827,0.3343093872070312,0
0.5594810485839844,0.3343093872070312,0
0.5491659164428710,0.3470907211303711,0
0.5567705154418945,0.3470907211303711,0
0.5661300659179688,0.3303039550781250,0
0.5634120941162110,0.3303039550781250,0
0.5615839004516602,0.3340169906616211,0
0.5577238082885742,0.3340169906616211,0
0.5471637725830077,0.3247289657592773,0
0.5602792739868164,0.3247289657592773,0
0.5582136154174805,0.3346321105957031,0
0.5594238281250000,0.3346321105957031,0
0.5494937896728516,0.3474397659301758,0
0.5569810867309570,0.3474397659301758,0
0.5667011260986328,0.3302530288696289,0
0.5638647079467773,0.3302530288696289,0
0.5615404129028320,0.3344713211059570,0
0.5575864791870117,0.3344713211059570,0
0.5474527359008788,0.3249504089355469,0
0.5610877990722656,0.3249504089355469,0
0.5586175918579102,0.3350595474243164,0
0.5595325469970703,0.3350595474243164,0
0.5500522613525390,0.3478860855102539,0
0.5572534561157226,0.3478860855102539,0
0.5670810699462890,0.3302782058715820,0
0.5545497894287109,0.3302782058715820,0
0.5606603622436523,0.3339426040649414,0
0.5560186386108398,0.3339426040649414,0
0.5455696105957031,0.3227073669433594,0
0.5724203109741210,0.3227073669433594,0
0.5540536880493164,0.3306461334228515,0
0.5532543182373046,0.3306461334228515,0
0.5423818588256836,0.3403816223144531,0
0.5476346969604492,0.3403816223144531,0
0.5559516906738281,0.3187408447265625,0
0.5406377792358398,0.3187408447265625,0
0.5445339202880859,0.3186218261718750,0
0.5393457412719727,0.3186218261718750,0
0.5266954421997070,0.3043642044067383,0
0.5394104003906249,0.3043642044067383,0
0.5337701797485351,0.3109926223754882,0
0.5153841018676758,0.3109926223754882,0
0.5223587036132812,0.3207612991333008,0
0.5156129837036133,0.3207612991333008,0
0.5379077911376953,0.3010883331298828,0
0.5238492965698242,0.3010883331298828,0
0.5301120758056640,0.3052305221557617,0
0.5275691986083985,0.3052305221557617,0
0.5173770904541015,0.2960586547851562,0
0.5332054138183594,0.2960586547851562,0
0.5298254013061523,0.3080938339233398,0
0.5310745239257812,0.3080938339233398,0
0.5237503051757812,0.3228841781616211,0
0.5200458526611328,0.3228841781616211,0
0.5436080932617188,0.3068704605102539,0
0.5303586959838867,0.3068704605102539,0
0.5378162384033203,0.3138467788696289,0
0.5364149093627929,0.3138467788696289,0
0.5267910003662110,0.3054908752441406,0
0.5433191299438477,0.3054908752441406,0
0.5394842147827148,0.3177721023559570,0
0.5404146194458007,0.3177721023559570,0
0.5329301834106445,0.3315828323364258,0
0.5400747299194336,0.3315828323364258,0
0.5519353866577148,0.3142198562622070,0
0.5502084732055664,0.3142198562622070,0
0.5446025848388671,0.3203859329223633,0
0.5426988601684570,0.3203859329223633,0
0.5328758239746093,0.3108901977539062,0
0.5495258331298828,0.3108901977539062,0
0.5446929931640625,0.3226650238037109,0
0.5454093933105468,0.3226650238037109,0
0.5377286911010742,0.3360311508178711,0
0.5446655273437500,0.3360311508178711,0
0.5566480636596679,0.3181228637695312,0
0.5547712326049804,0.3181228637695312,0
0.5484489440917969,0.3243541717529297,0
0.5468708038330078,0.3243541717529297,0
0.5367113113403320,0.3141546249389648,0
0.5534740447998047,0.3141546249389648,0
0.5481233596801758,0.3257308959960937,0
0.5481061935424805,0.3257308959960937,0
0.5403282165527343,0.3382169723510742,0
0.5469635009765624,0.3382169723510742,0
0.5587738037109374,0.3196609497070312,0
0.5427343368530273,0.3196609497070312,0
0.5492843627929688,0.3252737045288086,0
0.5474624633789062,0.3252737045288086,0
0.5370729446411132,0.3142559051513672,0
0.5647567749023438,0.3142559051513672,0
0.5476209640502929,0.3255334854125976,0
0.5312026977539063,0.3255334854125976,0
0.5391798019409180,0.3370697021484375,0
0.5457052230834961,0.3370697021484375,0
0.5575658798217773,0.3180908203125000,0
0.5404598236083984,0.3180908203125000,0
0.5472627639770508,0.3237264633178711,0
0.5456617355346679,0.3237264633178711,0
0.5352825164794922,0.3126102447509765,0
0.5524766921997070,0.3126102447509765,0
0.5460056304931641,0.3243553161621094,0
0.5297304153442383,0.3243553161621094,0
0.5378734588623046,0.3360317230224609,0
0.5447050094604492,0.3360317230224609,0
0.5572872161865234,0.3172388076782227,0
0.5549617767333984,0.3172388076782227,0
0.5469446182250977,0.3237350463867187,0
0.5457950592041015,0.3237350463867187,0
0.5358409881591797,0.3128196716308594,0
0.5536222457885742,0.3128196716308594,0
0.5468502044677734,0.3255861282348633,0
0.5464061737060547,0.3255861282348633,0
0.5393285751342773,0.3370456695556641,0
0.5339767456054687,0.3370456695556641,0
0.5590272903442383,0.3183763504028320,0
0.5571081161499023,0.3183763504028320,0
0.5485078811645507,0.3255678176879883,0
0.5476764678955078,0.3255678176879883,0
0.5380279541015625,0.3147663116455078,0
0.5560220718383789,0.3147663116455078,0
0.5489902496337891,0.3280139923095703,0
0.5482000350952149,0.3280139923095703,0
0.5417175292968750,0.3388750076293945,0
0.5359834671020508,0.3388750076293945,0
0.5613086700439452,0.3200609207153320,0
0.5594770431518554,0.3200609207153320,0
0.5503229141235352,0.3275854110717774,0
0.5487127304077148,0.3275854110717774,0
0.5402635574340821,0.3165836334228516,0
0.5673534393310546,0.3165836334228516,0
0.5509037017822266,0.3300825119018554,0
0.5498908996582031,0.3300825119018554,0
0.5434982299804687,0.3401578903198242,0
0.5376296997070312,0.3401578903198242,0
0.5634281158447265,0.3214113235473633,0
0.5443914413452148,0.3214113235473633,0
0.5516344070434570,0.3288991928100586,0
0.5500036239624023,0.3288991928100586,0
0.5415796279907227,0.3177412033081055,0
0.5684703826904297,0.3177412033081055,0
0.5522254943847656,0.3316091537475586,0
0.5358964920043945,0.3316091537475586,0
0.5447765350341797,0.3407701492309570,0
0.5511125564575196,0.3407701492309570,0
0.5647916793823242,0.3220396041870117,0
0.5627889633178711,0.3220396041870117,0
0.5524806976318359,0.3298713684082031,0
0.5520870208740234,0.3298713684082031,0
0.5426290512084960,0.3185068130493164,0
0.5692359924316406,0.3185068130493164,0
0.5529750823974610,0.3327026367187500,0
0.5366317749023437,0.3327026367187500,0
0.5454265594482421,0.3410070419311523,0
0.5517408370971679,0.3410070419311523,0
0.5656316757202148,0.3224018096923828,0
0.5451770782470703,0.3224018096923828,0
0.5528800964355468,0.3304189682006836,0
0.5526414871215820,0.3304189682006836,0
0.5432001113891601,0.3190521240234375,0
0.5620016098022461,0.3190521240234375,0
0.5535037994384765,0.3336874008178711,0
0.5518815994262695,0.3336874008178711,0
0.5459718704223633,0.3410665512084961,0
0.5521894454956054,0.3410665512084961,0
0.5662027359008789,0.3227210998535156,0
0.5643070220947265,0.3227210998535156,0
0.5532817840576172,0.3308938980102539,0
0.5519765853881836,0.3308938980102539,0
0.5437843322753906,0.3194944381713867,0
0.5701412200927735,0.3194944381713867,0
0.5540102005004882,0.3346429824829101,0
0.5373046874999999,0.3346429824829101,0
0.5465126037597656,0.3410013198852539,0
0.5399013519287109,0.3410013198852539,0
0.5668378829956054,0.3229906082153320,0
0.5650062561035156,0.3229906082153320,0
0.5536188125610352,0.3313465118408203,0
0.5524349212646484,0.3313465118408203,0
0.5443353652954102,0.3203327178955078,0
0.5704187393188477,0.3203327178955078,0
0.5545354843139648,0.3356117248535156,0
0.5379032135009766,0.3356117248535156,0
0.5470985412597656,0.3411283493041992,0
0.5404724121093750,0.3411283493041992,0
0.5676744461059570,0.3231536865234375,0
0.5660156250000000,0.3304658889770508,0
0.5542757034301757,0.3481761932373047,0
0.5452011108398437,0.3210645675659179,0
0.5711420059204101,0.3210645675659179,0
0.5553989410400391,0.3368047714233398,0
0.5388896942138671,0.3368047714233398,0
0.5480546951293945,0.3411993026733398,0
0.5412036895751953,0.3411993026733398,0
0.5684406280517578,0.3235977172851562,0
0.5663864135742187,0.3235977172851562,0
0.5540840148925781,0.3318901062011719,0
0.5521047592163085,0.3318901062011719,0
0.5437007904052734,0.3192535400390625,0
0.5673906326293945,0.3192535400390625,0
0.5508893966674805,0.3327283859252930,0
0.5317440032958984,0.3327283859252930,0
0.5403053283691406,0.3330871582031250,0
0.5302871704101563,0.3330871582031250,0
0.5568117141723633,0.3119041442871094,0
0.5514507293701172,0.3119041442871094,0
0.5381515502929687,0.3164583206176758,0
0.5337507247924804,0.3164583206176758,0
0.5253479003906250,0.3013658523559570,0
0.5477737426757813,0.3013658523559570,0
0.5313875198364257,0.3140830993652344,0
0.5122604370117188,0.3140830993652344,0
0.5214157104492188,0.3140504837036133,0
0.5127090454101563,0.3140504837036133,0
0.5400215148925781,0.2956798553466797,0
0.5378482818603515,0.2956798553466797,0
0.5256820678710937,0.3049741744995117,0
0.5248220443725585,0.3049741744995117,0
0.5180265426635742,0.2949050903320312,0
0.5438707351684570,0.2949050903320312,0
0.5286724090576171,0.3129461288452148,0
0.5131353378295899,0.3129461288452148,0
0.5234985351562500,0.3163908004760742,0
0.5174097061157227,0.3163908004760742,0
0.5455095291137695,0.3017057418823242,0
0.5456491470336914,0.3017057418823242,0
0.5333782196044922,0.3132562637329102,0
0.5338754653930664,0.3132562637329102,0
0.5272253036499023,0.3042995452880859,0
0.5531312942504882,0.3042995452880859,0
0.5377367019653320,0.3221088409423828,0
0.5219141006469726,0.3221088409423828,0
0.5320976257324218,0.3240566253662109,0
0.5252689361572266,0.3240566253662109,0
0.5528142929077148,0.3085979461669922,0
0.5523782730102539,0.3085979461669922,0
0.5399036407470703,0.3194177627563476,0
0.5398590087890625,0.3194177627563476,0
0.5331390380859374,0.3098499298095703,0
0.5583572387695312,0.3098499298095703,0
0.5427721023559570,0.3272266387939453,0
0.5266433715820312,0.3272266387939453,0
0.5370054244995117,0.3280448913574219,0
0.5297126770019531,0.3280448913574219,0
0.5570692062377930,0.3123870849609375,0
0.5567785263061523,0.3123870849609375,0
0.5438661575317383,0.3231714248657226,0
0.5435525894165039,0.3231714248657226,0
0.5370534896850586,0.3136121749877930,0
0.5615959167480469,0.3136121749877930,0
0.5459747314453125,0.3305036544799805,0
0.5291536331176757,0.3305036544799805,0
0.5398017883300781,0.3297706604003906,0
0.5315958023071289,0.3297706604003906,0
0.5585987091064453,0.3137266159057617,0
0.5579137802124023,0.3137266159057617,0
0.5447908401489258,0.3238889694213867,0
0.5437780380249023,0.3238889694213867,0
0.5373716354370117,0.3139709472656250,0
0.5609046936035156,0.3139709472656250,0
0.5452995300292969,0.3301099777221679,0
0.5279788970947266,0.3301099777221679,0
0.5388816833496094,0.3280517578125000,0
0.5299833297729492,0.3280517578125000,0
0.5568277359008789,0.3120162963867187,0
0.5563201904296875,0.3120162963867187,0
0.5428802490234375,0.3222370147705078,0
0.5419086456298828,0.3222370147705078,0
0.5356939315795898,0.3126405715942382,0
0.5592761993408203,0.3126405715942382,0
0.5438753128051758,0.3290004730224609,0
0.5266965866088867,0.3290004730224609,0
0.5379610061645508,0.3266538619995117,0
0.5293350219726562,0.3266538619995117,0
0.5556581497192382,0.3113983154296875,0
0.5560586929321288,0.3113983154296875,0
0.5427864074707031,0.3223806381225586,0
0.5423332214355469,0.3223806381225586,0
0.5364406585693359,0.3134971618652344,0
0.5602844238281249,0.3134971618652344,0
0.5446735382080078,0.3303279876708984,0
0.5280366897583008,0.3303279876708984,0
0.5395288467407227,0.3276432037353516,0
0.5308925628662109,0.3276432037353516,0
0.5568895339965820,0.3130994796752929,0
0.5579635620117187,0.3130994796752929,0
0.5446054458618164,0.3241584777832031,0
0.5443611145019531,0.3241584777832031,0
0.5387180328369140,0.3156984329223633,0
0.5624158859252929,0.3156984329223633,0
0.5467489242553710,0.3325944900512695,0
0.5302413940429688,0.3325944900512695,0
0.5418348312377930,0.3292425155639648,0
0.5330383300781250,0.3292425155639648,0
0.5586118698120117,0.3149734497070312,0
0.5601665496826171,0.3149734497070312,0
0.5467632293701171,0.3261829376220703,0
0.5463197708129882,0.3261829376220703,0
0.5409187316894531,0.3177171707153320,0
0.5641828536987304,0.3177171707153320,0
0.5487012863159180,0.3347379684448242,0
0.5318950653076172,0.3347379684448242,0
0.5439388275146484,0.3303777694702149,0
0.5347795486450195,0.3303777694702149,0
0.5598833084106445,0.3164560317993164,0
0.5618762969970703,0.3164560317993164,0
0.5481925964355469,0.3275648117065429,0
0.5477348327636719,0.3275648117065429,0
0.5428716659545898,0.3192689895629883,0
0.5654376983642578,0.3192689895629883,0
0.5500408172607422,0.3362955093383789,0
0.5330801010131836,0.3362955093383789,0
0.5454071044921874,0.3311182022094726,0
0.5358461380004883,0.3311182022094726,0
0.5603605270385742,0.3173973083496094,0
0.5627717971801758,0.3173973083496094,0
0.5491052627563476,0.3285181045532227,0
0.5485588073730469,0.3285181045532227,0
0.5439971923828125,0.3203166961669922,0
0.5661151885986327,0.3203166961669922,0
0.5506433486938477,0.3373472213745117,0
0.5336814880371094,0.3373472213745117,0
0.5462659835815430,0.3313436508178711,0
0.5364835739135742,0.3313436508178711,0
0.5604337692260742,0.3179929733276367,0
0.5632667541503906,0.3179929733276367,0
0.5495801925659179,0.3290279388427734,0
