REDsignal,IRsignal,synced
0.6805864334106445,0.3082300186157226,0
0.6839246749877930,0.3076154708862305,0
0.6835453033447265,0.3091781616210937,0
0.6844991683959961,0.3091781616210937,0
0.6858386993408203,0.3112558364868164,0
0.6851783752441406,0.3112558364868164,0
0.6871828079223633,0.3117467880249024,0
0.6868600845336914,0.3117467880249024,0
0.6884210586547851,0.3109262466430664,0
0.6893537521362304,0.3109262466430664,0
0.6871307373046874,0.3119602203369141,0
0.6879484176635742,0.3119602203369141,0
0.6872348785400391,0.3116855621337891,0
0.6870002746582031,0.3116855621337891,0
0.6874008178710938,0.3122348785400391,0
0.6858524322509766,0.3122348785400391,0
0.6872285842895508,0.3114503860473632,0
0.6863039016723632,0.3114503860473632,0
0.6876222610473632,0.3101469039916992,0
0.6882602691650390,0.3101469039916992,0
0.6859869003295899,0.3109474182128906,0
0.6874780654907227,0.3109474182128906,0
0.6863044738769531,0.3109937667846679,0
0.6864166259765625,0.3109937667846679,0
0.6872577667236328,0.3121198654174804,0
0.6861413955688477,0.3121198654174804,0
0.6879621505737304,0.3121816635131836,0
0.6874517440795899,0.3121816635131836,0
0.6892616271972656,0.3116643905639648,0
0.6902824401855469,0.3116643905639648,0
0.6884788513183594,0.3131858825683594,0
0.6903184890747071,0.3131858825683594,0
0.6895408630371094,0.3139949798583984,0
0.6900066375732422,0.3139949798583984,0
0.6910697937011718,0.3156858444213867,0
0.6904014587402344,0.3156858444213867,0
0.6925449371337891,0.3162374496459961,0
0.6923486709594726,0.3162374496459961,0
0.6943468093872071,0.3162380218505859,0
0.6957647323608398,0.3162380218505859,0
0.6941225051879882,0.3182584762573242,0
0.6963981628417969,0.3182584762573242,0
0.6957979202270508,0.3194240570068359,0
0.6965703964233398,0.3194240570068359,0
0.6978464126586914,0.3216207504272461,0
0.6973789215087890,0.3216207504272461,0
0.6996620178222656,0.3223737716674804,0
0.6997129440307617,0.3223737716674804,0
0.7018020629882812,0.3226043701171875,0
0.7033172607421875,0.3226043701171875,0
0.7017047882080077,0.3247650146484375,0
0.7039220809936523,0.3247650146484375,0
0.7033006668090820,0.3257778167724609,0
0.7040164947509765,0.3257778167724609,0
0.7052404403686523,0.3278091430664062,0
0.7045938491821289,0.3278091430664062,0
0.7066881179809570,0.3283069610595703,0
0.7065027236938476,0.3283069610595703,0
0.7084613800048828,0.3281982421875000,0
0.7097185134887695,0.3281982421875000,0
0.7078525543212890,0.3299388885498047,0
0.7098363876342774,0.3299388885498047,0
0.7090084075927734,0.3306283950805664,0
0.7094301223754883,0.3306283950805664,0
0.7103914260864258,0.3322282791137695,0
0.7095279693603516,0.3322282791137695,0
0.7115198135375976,0.3324222564697266,0
0.7110448837280273,0.3324222564697266,0
0.7128948211669922,0.3319993972778320,0
0.7140306472778321,0.3319993972778320,0
0.7118940353393555,0.3334127426147461,0
0.7137777328491210,0.3334127426147461,0
0.7127998352050781,0.3338848114013672,0
0.7130172729492187,0.3338848114013672,0
0.7139917373657226,0.3353118896484375,0
0.7129886627197265,0.3353118896484375,0
0.7147356033325195,0.3352844238281250,0
0.7142869949340820,0.3352844238281250,0
0.7160236358642578,0.3347082138061523,0
0.7171056747436523,0.3347082138061523,0
0.7149799346923827,0.3360540390014649,0
0.7167234420776367,0.3360540390014649,0
0.7157363891601562,0.3364397048950195,0
0.7159309387207031,0.3364397048950195,0
0.7166730880737304,0.3377140045166016,0
0.7156076431274414,0.3377140045166016,0
0.7174026489257812,0.3375972747802734,0
0.7169197082519531,0.3375972747802734,0
0.7184961318969726,0.3368356704711914,0
0.7193544387817382,0.3368356704711914,0
0.7171468734741211,0.3378742218017578,0
0.7186872482299804,0.3378742218017578,0
0.7173768997192382,0.3377243041992187,0
0.7170999526977538,0.3377243041992187,0
0.7173019409179687,0.3379554748535156,0
0.7152631759643554,0.3379554748535156,0
0.7159955978393554,0.3358474731445312,0
0.7137731552124024,0.3358474731445312,0
0.7134218215942383,0.3315433502197265,0
0.7114803314208984,0.3315433502197265,0
0.7061782836914062,0.3268924713134765,0
0.7034048080444336,0.3268924713134765,0
0.6981290817260742,0.3194509506225586,0
0.6931777954101562,0.3194509506225586,0
0.6899351119995117,0.3133140563964844,0
0.6846616744995117,0.3133140563964844,0
0.6835739135742187,0.3075382232666016,0
0.6800519943237304,0.3075382232666016,0
0.6795244216918945,0.3030366897583008,0
0.6784378051757812,0.3030366897583008,0
0.6748992919921875,0.3014631271362305,0
0.6750600814819335,0.3014631271362305,0
0.6730327606201172,0.2998151779174805,0
0.6720937728881836,0.2998151779174805,0
0.6708589553833008,0.2985403060913086,0
0.6716560363769531,0.2970582962036133,0
0.6708486557006835,0.2973335266113281,0
0.6725332260131835,0.2973335266113281,0
0.6702421188354492,0.2980659484863281,0
0.6716709136962891,0.2980659484863281,0
0.6705596923828124,0.2981048583984375,0
0.6705224990844726,0.2981048583984375,0
0.6712577819824218,0.2990352630615234,0
0.6701808929443359,0.2990352630615234,0
0.6718511581420898,0.2987937927246094,0
0.6712812423706055,0.2987937927246094,0
0.6728181838989258,0.2980413436889648,0
0.6737583160400390,0.2980413436889648,0
0.6717000961303711,0.2992435455322265,0
0.6734052658081054,0.2992435455322265,0
0.6724800109863281,0.2996109008789062,0
0.6727300643920898,0.2996109008789062,0
0.6736810684204101,0.3011598587036133,0
0.6730144500732421,0.3011598587036133,0
0.6750961303710937,0.3016365051269531,0
0.6751665115356446,0.3016365051269531,0
0.6772453308105468,0.3020193099975586,0
0.6790500640869140,0.3020193099975586,0
0.6776893615722656,0.3046457290649414,0
0.6803295135498046,0.3046457290649414,0
0.6802339553833008,0.3063806533813476,0
0.6813131332397461,0.3063806533813476,0
0.6828735351562499,0.3091077804565430,0
0.6827007293701172,0.3091077804565430,0
0.6851726531982422,0.3101675033569336,0
0.6852739334106445,0.3101675033569336,0
0.6873315811157227,0.3104387283325195,0
0.6888107299804688,0.3104387283325195,0
0.6870019912719726,0.3121484756469726,0
0.6887746810913086,0.3121484756469726,0
0.6878511428833007,0.3124832153320312,0
0.6878866195678711,0.3124832153320312,0
0.6885526657104492,0.3134096145629883,0
0.6871885299682617,0.3134096145629883,0
0.6887437820434570,0.3127241134643555,0
0.6877956390380859,0.3127241134643555,0
0.6889486312866211,0.3114017486572265,0
0.6894990921020507,0.3114017486572265,0
0.6870111465454102,0.3119361877441406,0
0.6882991790771484,0.3119361877441406,0
0.6869928359985351,0.3116792678833007,0
0.6867725372314453,0.3116792678833007,0
0.6873950958251953,0.3124849319458008,0
0.6860961914062500,0.3124849319458008,0
0.6877412796020508,0.3118984222412109,0
0.6870901107788085,0.3118984222412109,0
0.6885143280029297,0.3111162185668945,0
0.6894607543945312,0.3111162185668945,0
0.6872938156127929,0.3123195648193359,0
0.6889566421508789,0.3123195648193359,0
0.6880079269409179,0.3126033782958984,0
0.6880868911743164,0.3126033782958984,0
0.6889783859252929,0.3139617919921875,0
0.6879638671875000,0.3139617919921875,0
0.6899093627929688,0.3138805389404297,0
0.6894304275512695,0.3138805389404297,0
0.6911121368408203,0.3134130477905273,0
0.6906480789184570,0.3134130477905273,0
0.6903070449829102,0.3149465560913086,0
0.6921993255615234,0.3149465560913086,0
0.6913290023803711,0.3155971527099609,0
0.6916191101074218,0.3155971527099609,0
0.6927675247192383,0.3172874450683594,0
0.6919778823852539,0.3172874450683594,0
0.6941087722778320,0.3176382064819336,0
0.6940000534057617,0.3176382064819336,0
0.6958391189575195,0.3176736831665039,0
0.6973194122314453,0.3176736831665039,0
0.6955146789550781,0.3196866989135742,0
0.6977130889892578,0.3196866989135742,0
0.6971408843994140,0.3206880569458008,0
0.6976421356201171,0.3206880569458008,0
0.6990337371826172,0.3227645874023438,0
0.6984477996826172,0.3227645874023438,0
0.7007526397705078,0.3233219146728515,0
0.7007371902465820,0.3233219146728515,0
0.7026334762573242,0.3235691070556641,0
0.7042779922485352,0.3235691070556641,0
0.7025173187255859,0.3255723953247070,0
0.7046356201171875,0.3255723953247070,0
0.7041028976440430,0.3266607284545898,0
0.7045446395874023,0.3266607284545898,0
0.7058315277099609,0.3285856246948242,0
0.7051237106323242,0.3285856246948242,0
0.7072757720947266,0.3289123535156250,0
0.7070926666259766,0.3289123535156250,0
0.7089139938354492,0.3288328170776367,0
0.7102140426635742,0.3288328170776367,0
0.7082078933715820,0.3305019378662109,0
0.7101385116577148,0.3305019378662109,0
0.7093626022338867,0.3311382293701172,0
0.7096212387084960,0.3311382293701172,0
0.7106494903564453,0.3327037811279297,0
0.7096778869628906,0.3327037811279297,0
0.7117160797119141,0.3326025009155273,0
0.7112731933593750,0.3326025009155273,0
0.7128747940063477,0.3321933746337891,0
0.7140335083007813,0.3321933746337891,0
0.7118562698364258,0.3335838317871094,0
0.7136581420898437,0.3335838317871094,0
0.7127534866333007,0.3340158462524414,0
0.7128759384155273,0.3340158462524414,0
0.7139293670654296,0.3355304718017578,0
0.7128261566162110,0.3355304718017578,0
0.7148803710937500,0.3353456497192382,0
0.7144437789916992,0.3353456497192382,0
0.7159383773803710,0.3348958969116211,0
0.7171268463134766,0.3348958969116211,0
0.7148740768432617,0.3363189697265625,0
0.7167177200317383,0.3363189697265625,0
0.7157615661621094,0.3367109298706055,0
0.7158136367797852,0.3367109298706055,0
0.7168046951293945,0.3380784988403320,0
0.7156219482421875,0.3380784988403320,0
0.7174718856811523,0.3376728057861328,0
0.7169105529785156,0.3376728057861328,0
0.7182701110839843,0.3367744445800781,0
0.7190746307373047,0.3367744445800781,0
0.7163291931152344,0.3372768402099609,0
0.7173500061035156,0.3372768402099609,0
0.7154228210449218,0.3359876632690429,0
0.7140415191650390,0.3359876632690429,0
0.7133319854736327,0.3342206954956055,0
0.7096881866455078,0.3342206954956055,0
0.7088052749633789,0.3287715911865234,0
0.7043260574340821,0.3287715911865234,0
0.7018112182617188,0.3208860397338867,0
0.6978612899780273,0.3208860397338867,0
0.6914669036865234,0.3145643234252929,0
0.6888216018676757,0.3145643234252929,0
0.6846490859985351,0.3089309692382812,0
0.6814962387084961,0.3089309692382812,0
0.6802402496337890,0.3060235977172852,0
0.6768482208251952,0.3060235977172852,0
0.6771898269653320,0.3027305603027344,0
0.6750761032104492,0.3027305603027344,0
0.6754114151000976,0.3000823974609375,0
0.6753547668457031,0.3000823974609375,0
0.6722597122192383,0.2997974395751953,0
0.6732278823852539,0.2997974395751953,0
0.6717098236083984,0.2991353988647461,0
0.6712165832519531,0.2991353988647461,0
0.6718116760253906,0.2996623992919922,0
0.6702907562255859,0.2996623992919922,0
0.6719718933105469,0.2988492965698242,0
0.6712268829345703,0.2988492965698242,0
0.6725481033325195,0.2980110168457031,0
0.6733623504638672,0.2980110168457031,0
0.6710289001464843,0.2988779067993164,0
0.6724170684814453,0.2988779067993164,0
0.6714683532714844,0.2989780426025391,0
0.6712480545043945,0.2989780426025391,0
0.6721961975097656,0.3000337600708008,0
0.6709608078002930,0.3000337600708008,0
0.6727684020996093,0.2995307922363281,0
0.6721229553222656,0.2995307922363281,0
0.6736627578735351,0.2989974975585937,0
0.6746292114257812,0.2989974975585937,0
0.6728073120117187,0.3004394531250000,0
0.6738475799560547,0.3004394531250000,0
0.6740180969238281,0.3005504608154297,0
0.6747001647949219,0.3005504608154297,0
0.6750898361206055,0.3024290084838867,0
0.6755241394042969,0.3024290084838867,0
0.6766908645629882,0.3039012908935547,0
0.6769506454467773,0.3039012908935547,0
0.6797578811645507,0.3049581527709961,0
0.6807735443115234,0.3049581527709961,0
0.6810407638549805,0.3073499679565430,0
0.6828340530395508,0.3073499679565430,0
0.6832826614379882,0.3087661743164062,0
0.6844425201416016,0.3087661743164062,0
0.6854124069213867,0.3111001968383789,0
0.6858083724975585,0.3111001968383789,0
0.6870609283447265,0.3119253158569336,0
0.6873195648193359,0.3119253158569336,0
0.6884422302246094,0.3119842529296875,0
0.6897165298461914,0.3119842529296875,0
0.6877595901489257,0.3127418518066406,0
0.6886396408081055,0.3127418518066406,0
0.6877223968505859,0.3126640319824219,0
0.6865642547607421,0.3126640319824219,0
0.6875038146972656,0.3122360229492188,0
0.6855606079101563,0.3122360229492188,0
0.6864452362060547,0.3101451873779297,0
0.6851675033569335,0.3101451873779297,0
0.6847944259643555,0.3082637786865234,0
0.6853477478027343,0.3082637786865234,0
0.6821685791015625,0.3077390670776367,0
0.6824083328247070,0.3077390670776367,0
0.6809371948242188,0.3068029403686524,0
0.6798580169677734,0.3068029403686524,0
0.6805360794067382,0.3066341400146484,0
0.6787055969238281,0.3066341400146484,0
0.6791439056396484,0.3052076339721679,0
0.6791193008422851,0.3059612274169922,0
0.6799999237060547,0.3041238784790039,0
0.6806636810302734,0.3041238784790039,0
0.6783760070800781,0.3048213958740234,0
0.6795404434204101,0.3048213958740234,0
0.6786592483520507,0.3048334121704102,0
0.6784240722656250,0.3048334121704102,0
0.6793733596801758,0.3058702468872070,0
0.6783416748046874,0.3058702468872070,0
0.6802270889282226,0.3054971694946289,0
0.6800462722778320,0.3054971694946289,0
0.6812902450561523,0.3052396774291992,0
0.6828243255615234,0.3052396774291992,0
0.6807466506958008,0.3069831848144531,0
0.6829175949096680,0.3069831848144531,0
0.6822618484497071,0.3080274581909180,0
0.6829639434814453,0.3080274581909180,0
0.6841323852539062,0.3101800918579101,0
0.6837959289550781,0.3101800918579101,0
0.6861167907714844,0.3107843399047852,0
0.6865671157836913,0.3107843399047852,0
0.6882505416870117,0.3114234924316406,0
0.6902584075927735,0.3114234924316406,0
0.6885578155517578,0.3137540817260742,0
0.6909307479858399,0.3137540817260742,0
0.6905891418457031,0.3152051925659179,0
0.6912918090820312,0.3152051925659179,0
0.6927972793579101,0.3175369262695312,0
0.6925861358642578,0.3175369262695312,0
0.6948921203613281,0.3182676315307617,0
0.6952709197998047,0.3182676315307617,0
0.6971248626708985,0.3189640045166016,0
0.6990119934082031,0.3189640045166016,0
0.6973251342773438,0.3211383819580078,0
0.6995492935180664,0.3211383819580078,0
0.6990629196166992,0.3223257064819336,0
0.6996408462524414,0.3223257064819336,0
0.7009311676025390,0.3244010925292969,0
0.7004161834716797,0.3244010925292969,0
0.7025482177734375,0.3246047973632812,0
0.7025087356567382,0.3246047973632812,0
0.7040342330932617,0.3247301101684570,0
0.7055871963500976,0.3247301101684570,0
0.7036010742187500,0.3264856338500977,0
0.7056358337402343,0.3264856338500977,0
0.7049669265747071,0.3272563934326172,0
0.7053216934204102,0.3272563934326172,0
0.7065261840820313,0.3291847229003906,0
0.7059059143066406,0.3291847229003906,0
0.7079406738281250,0.3293678283691406,0
0.7076883316040039,0.3293678283691406,0
0.7095016479492188,0.3294719696044922,0
0.7108005523681641,0.3294719696044922,0
0.7089271545410156,0.3310667037963867,0
0.7107639312744141,0.3310667037963867,0
0.7099834442138672,0.3315341949462891,0
0.7102117538452148,0.3315341949462891,0
0.7111427307128906,0.3329732894897461,0
0.7102581024169922,0.3329732894897461,0
0.7119077682495117,0.3327524185180664,0
0.7114362716674805,0.3327524185180664,0
0.7126453399658202,0.3320463180541992,0
0.7132753372192383,0.3320463180541992,0
0.7109355926513672,0.3325006484985352,0
0.7118688583374023,0.3325006484985352,0
0.7100910186767578,0.3310678482055664,0
0.7086645126342773,0.3310678482055664,0
0.7076528549194335,0.3292648315429688,0
0.7043306350708007,0.3292648315429688,0
0.7030557632446289,0.3238912582397461,0
0.6986503601074219,0.3238912582397461,0
0.6963506698608398,0.3166791915893555,0
0.6927761077880860,0.3166791915893555,0
0.6871713638305664,0.3111471176147461,0
0.6847457885742188,0.3111471176147461,0
0.6811986923217773,0.3059663772583008,0
0.6784360885620117,0.3059663772583008,0
0.6769323348999023,0.3034029006958008,0
0.6740518569946289,0.3034029006958008,0
0.6739820480346680,0.3001722335815429,0
0.6719369888305664,0.3001722335815429,0
0.6720777511596679,0.2976173400878906,0
0.6714683532714844,0.2976173400878906,0
0.6687549591064453,0.2968866348266602,0
0.6688796997070312,0.2963235855102539,0
0.6683584213256836,0.2944541931152344,0
0.6659934997558593,0.2958961486816406,0
0.6659934997558593,0.2948862075805664,0
0.6657949447631836,0.2942121505737305,0
0.6669404983520507,0.2936553955078125,0
0.6650802612304687,0.2940530776977539,0
0.6653703689575196,0.2948701858520508,0
0.6651575088500976,0.2937618255615234,0
0.6648462295532226,0.2940147399902344,0
0.6653635025024414,0.2950143814086914,0
0.6683835983276367,0.2945852279663086,0
0.6671882629394531,0.2959430694580078,0
0.6685306549072265,0.2964923858642578,0
0.6705076217651367,0.2971389770507812,0
0.6705144882202149,0.2987548828125000,0
0.6730293273925781,0.2991897583007813,0
0.6737611770629882,0.3003536224365234,0
0.6747797012329101,0.3007982254028320,0
0.6749078750610351,0.3031167984008789,0
0.6765884399414063,0.3031345367431640,0
0.6765357971191406,0.3033039093017578,0
0.6768230438232422,0.3050491333007813,0
0.6774055480957031,0.3045124053955078,0
0.6782524108886718,0.3044752120971679,0
0.6784194946289063,0.3051446914672851,0
0.6774879455566406,0.3055389404296875,0
0.6782369613647461,0.3047201156616211,0
0.6782369613647461,0.3043922424316406,0
0.6783245086669921,0.3053644180297851,0
0.6786117553710938,0.3047063827514648,0
0.6782707214355469,0.3047063827514648,0
0.6798814773559571,0.3042720794677734,0
0.6783313751220703,0.3051481246948242,0
0.6793270111083984,0.3053775787353515,0
0.6804908752441406,0.3048969268798828,0
0.6790208816528320,0.3067394256591797,0
0.6795444488525391,0.3062959671020508,0
0.6805721282958984,0.3065660476684570,0
0.6814950942993164,0.3082906723022461,0
0.6814430236816406,0.3082906723022461,0
0.6828088760375977,0.3084285736083984,0
0.6844305038452149,0.3088256835937500,0
0.6840791702270508,0.3102012634277344,0
0.6856676101684570,0.3103294372558594,0
0.6860733032226562,0.3110429763793945,0
0.6889080047607422,0.3117662429809570,0
0.6877086639404296,0.3137174606323242,0
0.6895797729492187,0.3143898010253906,0
0.6899299621582031,0.3160051345825195,0
0.6918588638305664,0.3168073654174804,0
0.6915750503540039,0.3172966003417969,0
0.6940767288208007,0.3179162979125976,0
0.6940767288208007,0.3182796478271484,0
0.6955913543701172,0.3206005096435547,0
0.6959918975830078,0.3205181121826172,0
0.6977199554443360,0.3213632583618164,0
0.6994411468505859,0.3213747024536133,0
0.6991853713989258,0.3237310409545898,0
0.7010095596313476,0.3231800079345703,0
0.7011577606201171,0.3237928390502929,0
0.7022518157958985,0.3239667892456055,0
0.7017883300781250,0.3253847122192383,0
0.7031324386596679,0.3248903274536133,0
0.7046396255493164,0.3256834030151367,0
0.7053892135620117,0.3259792327880859,0
0.7059144973754883,0.3273422241210938,0
0.7053697586059570,0.3276935577392578,0
0.7067836761474610,0.3278417587280273,0
0.7062463760375977,0.3291635513305664,0
0.7074417114257813,0.3286067962646484,0
0.7073610305786132,0.3294496536254883,0
0.7093597412109375,0.3295520782470703,0
0.7081958770751953,0.3312229156494140,0
0.7091285705566406,0.3309545516967773,0
0.7091405868530273,0.3309545516967773,0
0.7098587036132812,0.3321870803833007,0
0.7098587036132812,0.3325286865234375,0
0.7106878280639648,0.3322408676147461,0
0.7116720199584960,0.3316171646118164,0
0.7118980407714843,0.3319816589355469,0
0.7111604690551757,0.3323381423950195,0
0.7106941223144531,0.3319776535034180,0
0.7098278045654297,0.3298049926757812,0
0.7074148178100585,0.3291337966918945,0
0.7031753540039062,0.3233591079711914,0
0.6964942932128906,0.3168365478515625,0
0.6921243667602539,0.3174018859863281,0
0.6837141036987304,0.3108724594116211,0
0.6835121154785156,0.3077854156494140,0
0.6779125213623046,0.3024524688720703,0
0.6745954513549804,0.3012697219848633,0
0.6710289001464843,0.2981466293334961,0
0.6690004348754882,0.2981466293334961,0
0.6666509628295898,0.2954778671264648,0
0.6666509628295898,0.2959253311157227,0
0.6651712417602539,0.2938018798828125,0
0.6641973495483399,0.2930356979370117,0
0.6632904052734375,0.2933229446411132,0
0.6624916076660156,0.2933229446411132,0
0.6623016357421875,0.2927673339843750,0
0.6623016357421875,0.2916893005371093,0
0.6609140396118164,0.2924680709838867,0
0.6614931106567382,0.2916120529174804,0
0.6617631912231445,0.2912029266357422,0
0.6626529693603516,0.2912029266357422,0
0.6612293243408203,0.2920984268188476,0
0.6612293243408203,0.2914232254028320,0
0.6615766525268555,0.2911445617675781,0
0.6626741409301757,0.2906352996826172,0
0.6613283157348633,0.2915920257568359,0
0.6622301101684570,0.2915920257568359,0
0.6631977081298828,0.2915622711181641,0
0.6631977081298828,0.2914793014526367,0
0.6623720169067383,0.2926048278808593,0
0.6635942459106445,0.2928909301757812,0
0.6653417587280274,0.2934225082397461,0
0.6662876129150390,0.2934225082397461,0
0.6674560546875000,0.2953062057495117,0
0.6669765472412109,0.2958755493164062,0
0.6692367553710937,0.2967813491821289,0
0.6691732406616211,0.2986507415771484,0
0.6710889816284179,0.2992298126220703,0
0.6713178634643554,0.2992298126220703,0
0.6726350784301758,0.3009916305541992,0
0.6747837066650391,0.3016548156738281,0
0.6731964111328125,0.3007644653320312,0
0.6726299285888672,0.3007724761962891,0
0.6730030059814452,0.3014574050903320,0
0.6737085342407226,0.3009017944335937,0
0.6748723983764648,0.3020690917968750,0
0.6769374847412110,0.3039030075073242,0
0.6780372619628906,0.3057008743286133,0
0.6796148300170898,0.3064384460449219,0
0.6810379028320312,0.3085498809814453,0
0.6831058502197266,0.3089796066284179,0
0.6839590072631836,0.3094442367553711,0
0.6846347808837890,0.3118383407592774,0
0.6872606277465820,0.3130851745605469,0
0.6892215728759765,0.3132648468017578,0
0.6895757675170898,0.3156263351440430,0
0.6926885604858398,0.3168783187866211,0
0.6936344146728516,0.3193902969360352,0
0.6959403991699219,0.3192117691040039,0
0.6971872329711913,0.3219886779785156,0
0.6973823547363281,0.3224081039428711,0
0.6988185882568360,0.3229253768920898,0
0.7001798629760742,0.3244480133056640,0
0.7013437271118164,0.3244480133056640,0
0.7013643264770507,0.3249675750732422,0
0.7016847610473632,0.3249675750732422,0
0.7022907257080078,0.3266120910644531,0
0.7016389846801757,0.3266120910644531,0
0.7033853530883789,0.3263277053833007,0
0.7031965255737305,0.3263277053833007,0
0.7044519424438477,0.3263746261596679,0
0.7050498962402344,0.3263746261596679,0
0.7035581588745117,0.3274566650390625,0
0.7051128387451172,0.3274566650390625,0
0.7045120239257813,0.3276775360107422,0
0.7045721054077149,0.3276775360107422,0
0.7050453186035156,0.3290119171142578,0
0.7042808532714844,0.3290119171142578,0
0.7059019088745117,0.3285472869873047,0
0.7056621551513672,0.3285472869873047,0
0.7066640853881836,0.3284654617309570,0
0.7071710586547851,0.3284654617309570,0
0.7056741714477539,0.3292974472045898,0
0.7070285797119140,0.3292974472045898,0
0.7064420700073242,0.3293340682983398,0
0.7063951492309570,0.3293340682983398,0
0.7068054199218750,0.3305482864379883,0
0.7060100555419921,0.3305482864379883,0
0.7074382781982421,0.3298318862915039,0
0.7070108413696289,0.3298318862915039,0
0.7080345153808594,0.3294565200805664,0
0.7081615447998046,0.3294565200805664,0
0.7062355041503906,0.3293678283691406,0
0.7066486358642577,0.3293678283691406,0
0.7048072814941406,0.3273233413696289,0
0.7029167175292969,0.3273233413696289,0
0.7011915206909179,0.3246196746826172,0
0.6970447540283203,0.3246196746826172,0
0.6949991226196289,0.3176118850708008,0
0.6899110794067382,0.3176118850708008,0
0.6864881515502930,0.3096702575683594,0
0.6820838928222656,0.3096702575683594,0
0.6768682479858398,0.3035390853881836,0
0.6744323730468750,0.3035390853881836,0
0.6711330413818359,0.2985849380493164,0
0.6683063507080078,0.2985849380493164,0
0.6667333602905273,0.2961513519287109,0
0.6638843536376953,0.2961513519287109,0
0.6638643264770507,0.2929023742675781,0
0.6621328353881836,0.2929023742675781,0
0.6619331359863281,0.2907234191894531,0
0.6612281799316406,0.2907234191894531,0
0.6589056015014648,0.2899263381958008,0
0.6593736648559571,0.2899263381958008,0
0.6582143783569335,0.2888832092285156,0
0.6576095581054687,0.2888832092285156,0
0.6576175689697266,0.2893238067626953,0
0.6564828872680664,0.2893238067626953,0
0.6576513290405274,0.2881113052368164,0
0.6571895599365234,0.2881113052368164,0
0.6579494476318359,0.2876049041748047,0
0.6581365585327148,0.2876049041748047,0
0.6565584182739258,0.2880323410034180,0
0.6576713562011719,0.2880323410034180,0
0.6568433761596679,0.2877496719360351,0
0.6566774368286132,0.2877496719360351,0
0.6569515228271484,0.2886829376220703,0
0.6560983657836914,0.2886829376220703,0
0.6574808120727539,0.2878257751464844,0
0.6571392059326172,0.2878257751464844,0
0.6580432891845703,0.2876667022705078,0
0.6573423385620117,0.2876667022705078,0
0.6569898605346679,0.2883470535278320,0
0.6580507278442382,0.2883470535278320,0
0.6577932357788085,0.2884986877441406,0
0.6579311370849609,0.2884986877441406,0
0.6580547332763672,0.2900962829589844,0
0.6602130889892578,0.2898096084594726,0
0.6618272781372070,0.2906524658203125,0
0.6618272781372070,0.2909786224365234,0
0.6617534637451171,0.2928062438964844,0
0.6638168334960938,0.2933624267578125,0
0.6642780303955078,0.2933624267578125,0
0.6659219741821288,0.2943214416503906,0
0.6672454833984375,0.2943214416503906,0
0.6662120819091797,0.2961021423339844,0
0.6680019378662109,0.2961021423339844,0
0.6678789138793945,0.2968173980712890,0
0.6681758880615234,0.2968173980712890,0
0.6687698364257812,0.2983062744140625,0
0.6681301116943359,0.2977632522583007,0
0.6698472976684570,0.2977088928222656,0
0.6691829681396484,0.2984258651733399,0
0.6691829681396484,0.2975429534912109,0
0.6703559875488281,0.2973690032958984,0
0.6685449600219726,0.2977043151855469,0
0.6695766448974609,0.2977043151855469,0
0.6687583923339844,0.2972379684448242,0
0.6684637069702148,0.2972379684448242,0
0.6685976028442383,0.2980241775512695,0
0.6676099777221679,0.2980241775512695,0
0.6689277648925781,0.2970119476318359,0
0.6684814453125000,0.2970119476318359,0
0.6692407608032226,0.2967853546142578,0
0.6698369979858398,0.2967853546142578,0
0.6683710098266601,0.2974943161010742,0
0.6697460174560547,0.2974943161010742,0
0.6692178726196288,0.2977020263671875,0
0.6702999114990235,0.2977020263671875,0
0.6697568893432617,0.2991296768188477,0
0.6691720962524413,0.2991296768188477,0
0.6708148956298828,0.2987394332885742,0
0.6707382202148438,0.2987394332885742,0
0.6719404220581054,0.2991325378417969,0
0.6727249145507812,0.2991325378417969,0
0.6715101242065430,0.3003496170043945,0
0.6731849670410156,0.3003496170043945,0
0.6729520797729492,0.3009910583496094,0
0.6732770919799804,0.3009910583496094,0
0.6740289688110351,0.3028701782226562,0
0.6736604690551757,0.3028701782226562,0
0.6756517410278320,0.3028535842895508,0
0.6758319854736328,0.3028535842895508,0
0.6772150039672852,0.3037033081054688,0
0.6782867431640625,0.3037033081054688,0
0.6772361755371094,0.3052940368652344,0
0.6791696548461914,0.3052940368652344,0
0.6791198730468749,0.3063240051269531,0
0.6796880722045898,0.3063240051269531,0
0.6805686950683594,0.3085418701171875,0
0.6805257797241211,0.3085418701171875,0
0.6824392318725586,0.3088119506835937,0
0.6831413269042969,0.3088119506835937,0
0.6845346450805664,0.3099523544311523,0
0.6857036590576172,0.3099523544311523,0
0.6847578048706054,0.3117485046386719,0
0.6868137359619141,0.3117485046386719,0
0.6868646621704101,0.3128328323364258,0
0.6875621795654296,0.3128328323364258,0
0.6883844375610352,0.3151742935180664,0
0.6882425308227539,0.3151742935180664,0
0.6903545379638671,0.3153350830078125,0
0.6908409118652343,0.3153350830078125,0
0.6921375274658202,0.3163009643554687,0
0.6930788040161132,0.3163009643554687,0
0.6920871734619141,0.3179157257080078,0
0.6939399719238281,0.3179157257080078,0
0.6937997817993163,0.3186944961547851,0
0.6942512512207031,0.3186944961547851,0
0.6949991226196289,0.3206640243530273,0
0.6945213317871094,0.3206640243530273,0
0.6964702606201172,0.3204568862915039,0
0.6966144561767578,0.3204568862915039,0
0.6977863311767578,0.3210416793823242,0
0.6986246109008789,0.3210416793823242,0
0.6973691940307617,0.3222547531127929,0
0.6989725112915038,0.3222547531127929,0
0.6987041473388672,0.3227491378784180,0
0.6988695144653320,0.3227491378784180,0
0.6993890762329101,0.3243856430053711,0
0.6988500595092774,0.3243856430053711,0
0.7005861282348632,0.3239662170410156,0
0.7006307601928711,0.3239662170410156,0
0.7017225265502930,0.3243164062500000,0
0.7023736953735351,0.3243164062500000,0
0.7010467529296874,0.3254384994506836,0
0.7026638031005860,0.3254384994506836,0
0.7022008895874023,0.3258316040039063,0
0.7023719787597656,0.3258316040039063,0
0.7029201507568359,0.3274829864501953,0
0.7022678375244140,0.3274829864501953,0
0.7040754318237304,0.3268833160400391,0
0.7042161941528320,0.3268833160400391,0
0.7050624847412109,0.3272684097290039,0
0.7057245254516601,0.3272684097290039,0
0.7043701171875000,0.3282508850097656,0
0.7058584213256835,0.3282508850097656,0
0.7053548812866210,0.3284843444824219,0
0.7063711166381835,0.3282732009887695,0
0.7058996200561524,0.3298748016357422,0
0.7050922393798827,0.3298748016357422,0
0.7065771102905273,0.3289518356323242,0
0.7063734054565429,0.3289518356323242,0
0.7068391799926758,0.3285541534423828,0
0.7066612243652344,0.3285541534423828,0
0.7043815612792969,0.3278034210205078,0
0.7043420791625976,0.3278034210205078,0
0.7020606994628906,0.3248405456542969,0
0.6994228363037109,0.3248405456542969,0
0.6968170166015625,0.3207395553588867,0
0.6918085098266601,0.3207395553588867,0
0.6892261505126953,0.3125284194946289,0
0.6841094970703124,0.3125284194946289,0
0.6807798385620117,0.3052110671997070,0
0.6769495010375977,0.3052110671997070,0
0.6723987579345703,0.3003152847290039,0
0.6706272125244140,0.3003152847290039,0
0.6679538726806641,0.2962423324584961,0
0.6657445907592773,0.2962423324584961,0
0.6644176483154297,0.2945491790771484,0
0.6620000839233399,0.2945491790771484,0
0.6623983383178711,0.2915628433227539,0
0.6610496520996093,0.2915628433227539,0
0.6608985900878906,0.2900568008422851,0
0.6604568481445312,0.2900568008422851,0
0.6584959030151367,0.2896390914916992,0
0.6591888427734375,0.2896390914916992,0
0.6583328247070312,0.2889844894409180,0
0.6579385757446289,0.2889844894409180,0
0.6580238342285156,0.2897626876831055,0
0.6569932937622071,0.2897626876831055,0
0.6584403991699218,0.2886217117309570,0
0.6582378387451172,0.2886217117309570,0
0.6589073181152344,0.2886096954345703,0
0.6593233108520508,0.2886096954345703,0
0.6578573226928711,0.2891939163208008,0
0.6591035842895507,0.2891939163208008,0
0.6585966110229492,0.2892826080322266,0
0.6584323883056641,0.2892826080322266,0
0.6589130401611328,0.2904516220092773,0
0.6581554412841797,0.2904516220092773,0
0.6598251342773437,0.2896963119506836,0
0.6597152709960937,0.2896963119506836,0
0.6605752944946289,0.2899778366088867,0
0.6613128662109374,0.2899778366088867,0
0.6601032257080078,0.2910495758056640,0
0.6616556167602539,0.2910495758056640,0
0.6615056991577148,0.2917631149291992,0
0.6619897842407226,0.2917631149291992,0
0.6629545211791992,0.2938167572021484,0
0.6628606796264648,0.2938167572021484,0
0.6650779724121093,0.2943489074707031,0
0.6657966613769531,0.2943489074707031,0
0.6671585083007813,0.2957159042358398,0
0.6685483932495117,0.2957159042358398,0
0.6677730560302734,0.2976745605468750,0
0.6697683334350586,0.2976745605468750,0
0.6698719024658203,0.2988595962524414,0
0.6703903198242187,0.2988595962524414,0
0.6712835311889648,0.3008857727050781,0
0.6708766937255859,0.3008857727050781,0
0.6726865768432617,0.3004388809204102,0
0.6727306365966796,0.3004388809204102,0
0.6734882354736328,0.3007490158081055,0
0.6741497039794921,0.3007490158081055,0
0.6727077484130859,0.3014471054077149,0
0.6738464355468750,0.3014471054077149,0
0.6732793807983398,0.3013824462890625,0
0.6730636596679688,0.3013824462890625,0
0.6734344482421875,0.3024278640747070,0
0.6725973129272461,0.3024278640747070,0
0.6741542816162109,0.3016027450561523,0
0.6741405487060547,0.3016027450561523,0
0.6747144699096680,0.3017154693603515,0
0.6753524780273438,0.3017154693603515,0
0.6740324020385742,0.3026172637939453,0
0.6754600524902343,0.3026172637939453,0
0.6751750946044922,0.3030961990356445,0
0.6752666473388672,0.3030961990356445,0
0.6760854721069336,0.3047847747802734,0
0.6756820678710938,0.3047847747802734,0
0.6775634765624999,0.3045867919921875,0
0.6779262542724609,0.3045867919921875,0
0.6789539337158202,0.3054880142211914,0
0.6800228118896484,0.3054880142211914,0
0.6789962768554687,0.3070592880249023,0
0.6807638168334961,0.3070592880249023,0
0.6808450698852538,0.3080772399902343,0
0.6812891006469727,0.3080772399902343,0
0.6823425292968750,0.3103008270263672,0
0.6822177886962890,0.3103008270263672,0
0.6843875885009766,0.3105577468872070,0
0.6850078582763671,0.3105577468872070,0
0.6863485336303711,0.3118211746215820,0
0.6876091003417969,0.3118211746215820,0
0.6866603851318359,0.3137346267700195,0
0.6905588150024414,0.3150260925292969,0
0.6907178878784179,0.3175529479980468,0
0.6907430648803711,0.3175529479980468,0
0.6931068420410156,0.3179048538208007,0
0.6937969207763671,0.3179048538208007,0
0.6951021194458008,0.3193078994750976,0
0.6964622497558594,0.3193078994750976,0
0.6955432891845703,0.3212173461914062,0
0.6972759246826171,0.3212173461914062,0
0.6976083755493164,0.3223079681396484,0
0.6980861663818360,0.3223079681396484,0
0.6990789413452149,0.3246150970458984,0
0.6989416122436524,0.3246150970458984,0
0.7008161544799805,0.3246002197265625,0
0.7012956619262695,0.3246002197265625,0
0.7024675369262695,0.3255300521850586,0
0.7034551620483398,0.3255300521850586,0
0.7021940231323242,0.3269096374511719,0
0.7038837432861328,0.3269096374511719,0
0.7046424865722656,0.3288259506225586,0
0.7059545516967773,0.3288597106933593,0
0.7058584213256835,0.3294101715087890,0
0.7060192108154296,0.3312360763549805,0
0.7063791275024414,0.3308349609375000,0
0.7085317611694336,0.3307720184326172,0
0.7080963134765624,0.3315891265869140,0
0.7092098236083985,0.3329069137573242,0
0.7088212966918945,0.3334905624389649,0
0.7092144012451171,0.3329017639160156,0
0.7110918045043945,0.3330951690673828,0
0.7118213653564452,0.3337623596191406,0
0.7116754531860351,0.3342378616333008,0
0.7123517990112305,0.3341983795166015,0
0.7127426147460937,0.3349027633666992,0
0.7126419067382812,0.3358795166015625,0
0.7122991561889648,0.3360877990722656,0
0.7141096115112304,0.3360403060913086,0
0.7141376495361328,0.3362571716308594,0
0.7141376495361328,0.3379285812377930,0
0.7146377563476562,0.3370908737182617,0
0.7149919509887696,0.3364894866943359,0
0.7139499664306640,0.3362588882446289,0
0.7139144897460937,0.3331609725952148,0
0.7093391418457031,0.3250625610351562,0
0.6997798919677735,0.3227005004882812,0
0.6932264328002929,0.3114252090454102,0
0.6814167022705078,0.3077516555786133,0
0.6801933288574219,0.3023488998413086,0
0.6733938217163086,0.3020771026611328,0
0.6729103088378906,0.2999032974243164,0
0.6706100463867187,0.2979932785034179,0
0.6705299377441406,0.2981386184692383,0
0.6691841125488281,0.2992355346679688,0
0.6687217712402344,0.2983755111694336,0
0.6701087951660156,0.2982044219970703,0
0.6706186294555664,0.3001613616943359,0
0.6701705932617187,0.3012891769409179,0
0.6725578308105469,0.3005664825439453,0
0.6742424011230469,0.3033519744873047,0
0.6742424011230469,0.3050903320312500,0
0.6785442352294921,0.3059177398681641,0
0.6792840957641602,0.3097572326660156,0
0.6839189529418945,0.3113010406494141,0
0.6881567001342773,0.3174327850341797,0
0.6925792694091797,0.3184764862060547,0
0.6946105957031250,0.3191419601440429,0
0.6943565368652344,0.3196123123168945,0
0.6939668655395508,0.3208791732788086,0
0.6946620941162109,0.3197250366210938,0
0.6950614929199218,0.3194154739379882,0
0.6927320480346679,0.3179958343505859,0
0.6942295074462891,0.3188352584838867,0
0.6947816848754883,0.3213930130004883,0
0.6972867965698242,0.3215921401977539,0
0.6972570419311523,0.3240697860717773,0
0.7006067276000977,0.3258733749389648,0
0.7027547836303710,0.3303022384643555,0
0.7075332641601563,0.3346178054809570,0
0.7102575302124023,0.3355327606201172,0
0.7114311218261719,0.3361255645751953,0
0.7147350311279297,0.3372934341430664,0
0.7152282714843750,0.3379989624023437,0
0.7153541564941406,0.3386375427246094,0
0.7170438766479492,0.3399730682373047,0
0.7164625167846680,0.3395273208618164,0
0.7179422378540039,0.3391605377197265,0
0.7157667160034179,0.3381357192993164,0
0.7120393753051758,0.3350595474243164,0
0.7084751129150391,0.3280506134033203,0
0.6832597732543945,0.3101818084716797,0
0.6825862884521484,0.3084308624267578,0
0.6782512664794922,0.3045330047607422,0
0.6767143249511719,0.3059658050537109,0
0.6774627685546875,0.3050960540771484,0
0.6788944244384766,0.3073699951171875,0
0.6799879074096680,0.3082025527954101,0
0.6855154037475586,0.3103054046630859,0
0.6925369262695312,0.3198984146118164,0
0.6939085006713867,0.3231725692749023,0
0.7002742767333984,0.3262372970581054,0
0.7043506622314453,0.3289489746093750,0
0.7056936264038086,0.3287275314331055,0
0.7042997360229492,0.3281690597534180,0
0.7043924331665039,0.3272180557250977,0
0.7024812698364258,0.3260793685913086,0
0.7023931503295898,0.3259746551513672,0
0.7019725799560547,0.3265125274658203,0
0.7026878356933594,0.3271167755126953,0
0.7034814834594726,0.3290227890014648,0
0.7057994842529297,0.3299486160278320,0
0.7075984954833984,0.3316818237304687,0
0.7107015609741211,0.3344106674194336,0
0.7135465621948242,0.3357633590698242,0
0.7157489776611328,0.3375434875488281,0
0.7159938812255859,0.3388051986694336,0
0.7180503845214844,0.3391033172607422,0
0.7184085845947266,0.3419294357299805,0
0.7200828552246094,0.3416622161865234,0
0.7210693359375000,0.3414934158325195,0
0.7209394454956054,0.3439956665039062,0
0.7221736907958984,0.3435384750366211,0
0.7216718673706054,0.3452459335327148,0
0.7230096817016601,0.3439596176147461,0
0.7228843688964843,0.3446989059448242,0
0.7218830108642578,0.3427368164062500,0
0.7213417053222656,0.3435653686523437,0
0.7046470642089844,0.3149631500244141,0
0.6849248886108398,0.3097343444824219,0
0.6794517517089843,0.3039957046508789,0
0.6752935409545898,0.3025663375854492,0
0.6738103866577149,0.3033170700073242,0
0.6742801666259766,0.3025554656982422,0
0.6748306274414062,0.3024604797363281,0
0.6742515563964844,0.3041685104370117,0
0.6765060424804688,0.3040700912475586,0
0.6781705856323242,0.3051429748535156,0
0.6794820785522461,0.3083347320556640,0
0.6799432754516601,0.3087043762207031,0
0.6829433441162109,0.3108701705932617,0
0.6851325988769531,0.3129398345947266,0
0.6879449844360351,0.3148292541503906,0
0.6893194198608398,0.3170379638671875,0
0.6900358200073242,0.3169080734252930,0
0.6915452957153320,0.3176702499389648,0
0.6916883468627929,0.3179460525512695,0
0.6920539855957031,0.3170637130737304,0
0.6917278289794921,0.3172405242919922,0
0.6909290313720703,0.3160800933837891,0
0.6898921966552735,0.3172182083129882,0
0.6902349472045898,0.3162900924682617,0
0.6906194686889648,0.3171787261962891,0
0.6901405334472656,0.3166334152221680,0
0.6913421630859374,0.3188100814819336,0
0.6928573608398437,0.3184598922729492,0
0.6943651199340820,0.3185262680053711,0
0.6951284408569336,0.3196472167968750,0
0.6958797454833984,0.3224098205566406,0
0.6983024597167968,0.3235862731933594,0
0.6991230010986328,0.3238431930541992,0
0.7020080566406249,0.3269205093383789,0
0.7021322250366211,0.3282537460327148,0
0.7034814834594726,0.3291080474853516,0
0.7037321090698242,0.3291080474853516,0
0.7058898925781250,0.3286863327026367,0
0.7058898925781250,0.3291280746459961,0
0.7070840835571289,0.3306707382202148,0
0.7085437774658203,0.3306707382202148,0
0.7077238082885742,0.3323158264160156,0
0.7096349716186523,0.3323158264160156,0
0.7097047805786133,0.3336221694946289,0
0.7108978271484375,0.3344976425170899,0
0.7109384536743164,0.3346744537353515,0
0.7128707885742187,0.3352598190307617,0
0.7135528564453125,0.3376150131225586,0
0.7153060913085937,0.3384046554565430,0
0.7157278060913086,0.3397951126098633,0
0.7160757064819335,0.3392623901367187,0
0.7173700332641602,0.3401830673217773,0
0.7180269241333007,0.3410676956176757,0
0.7185344696044922,0.3416456222534179,0
0.7194963455200195,0.3427104949951172,0
0.7195117950439452,0.3431104660034179,0
0.7208158493041992,0.3419981002807617,0
0.7207660675048828,0.3419981002807617,0
0.7206310272216797,0.3424478530883789,0
0.7213411331176758,0.3424478530883789,0
0.7202138900756836,0.3427642822265625,0
0.7205778121948242,0.3427642822265625,0
0.7200239181518554,0.3420845031738281,0
0.7184629440307617,0.3420845031738281,0
0.7181877136230469,0.3407026290893554,0
0.7158994674682617,0.3407026290893554,0
0.7150228500366210,0.3357942581176758,0
0.7116971969604492,0.3357942581176758,0
0.7077449798583985,0.3294479370117188,0
0.7035461425781250,0.3294479370117188,0
0.6979110717773437,0.3216167449951172,0
0.6936836242675781,0.3216167449951172,0
0.6896718978881836,0.3147445678710937,0
0.6855182647705078,0.3147445678710937,0
0.6836992263793945,0.3104965209960938,0
0.6807197570800781,0.3104965209960938,0
0.6801715850830078,0.3063772201538086,0
0.6783702850341796,0.3063772201538086,0
0.6768247604370117,0.3043584823608398,0
0.6755865097045898,0.3033885955810547,0
0.6744260787963867,0.3032043457031250,0
0.6747013092041015,0.3032043457031250,0
0.6737051010131836,0.3023443222045898,0
0.6726408004760742,0.3023443222045898,0
0.6730270385742188,0.3023860931396484,0
0.6723346710205078,0.3023860931396484,0
0.6734281539916992,0.3012268066406250,0
0.6732158660888672,0.3012268066406250,0
0.6729646682739258,0.3014402389526367,0
0.6736204147338867,0.3014402389526367,0
0.6725938796997070,0.3017280578613281,0
0.6732009887695313,0.3017280578613281,0
0.6731700897216797,0.3019706726074219,0
0.6726287841796875,0.3019706726074219,0
0.6733846664428711,0.3025892257690430,0
0.6730304718017578,0.3025892257690430,0
0.6743505477905273,0.3018739700317383,0
0.6744735717773437,0.3018739700317383,0
0.6742515563964844,0.3023941040039063,0
0.6751831054687499,0.3023941040039063,0
0.6743116378784180,0.3030807495117188,0
0.6752323150634766,0.3030807495117188,0
0.6753519058227538,0.3037988662719727,0
0.6751482009887695,0.3037988662719727,0
0.6762651443481446,0.3051063537597656,0
0.6765232086181641,0.3051063537597656,0
0.6782180786132812,0.3053558349609375,0
0.6790019989013671,0.3053558349609375,0
0.6794809341430664,0.3071182250976562,0
0.6811855316162109,0.3071182250976562,0
0.6810441970825195,0.3091896057128906,0
0.6827997207641602,0.3091896057128906,0
0.6835842132568359,0.3110578536987305,0
0.6840156555175781,0.3110578536987305,0
0.6854776382446289,0.3131584167480468,0
0.6859874725341797,0.3131584167480468,0
0.6878047943115234,0.3135046005249023,0
0.6884370803833008,0.3135046005249023,0
0.6885354995727538,0.3146776199340820,0
0.6896970748901367,0.3146776199340820,0
0.6889240264892578,0.3155158996582031,0
0.6897428512573242,0.3155158996582031,0
0.6896089553833008,0.3158208847045899,0
0.6890121459960937,0.3158208847045899,0
0.6895402908325196,0.3161916732788086,0
0.6889806747436523,0.3161916732788086,0
0.6899002075195312,0.3149499893188477,0
0.6896896362304688,0.3149499893188477,0
0.6890584945678710,0.3148979187011718,0
0.6888771057128906,0.3148979187011718,0
0.6883666992187499,0.3149110794067383,0
0.6888639450073242,0.3149110794067383,0
0.6886962890625000,0.3149236679077148,0
0.6886522293090820,0.3149236679077148,0
0.6885692596435546,0.3153894424438476,0
0.6882202148437500,0.3153894424438476,0
0.6893909454345702,0.3145133972167969,0
0.6894212722778320,0.3145133972167969,0
0.6891477584838867,0.3150489807128906,0
0.6901107788085937,0.3150489807128906,0
0.6891288757324219,0.3157321929931641,0
0.6900020599365234,0.3157321929931641,0
0.6901908874511719,0.3163942337036132,0
0.6898166656494140,0.3163942337036132,0
0.6907871246337890,0.3175300598144531,0
0.6908386230468749,0.3175300598144531,0
0.6919979095458985,0.3173646926879883,0
0.6928253173828125,0.3173646926879883,0
0.6928659439086914,0.3184530258178711,0
0.6941671371459961,0.3184530258178711,0
0.6936349868774414,0.3198743820190429,0
0.6949235916137695,0.3198743820190429,0
0.6953613281250000,0.3210983276367188,0
0.6953407287597656,0.3210983276367188,0
0.6966819763183594,0.3228160858154297,0
0.6970727920532226,0.3228160858154297,0
0.6988632202148437,0.3230375289916992,0
0.6995779037475586,0.3230375289916992,0
0.6998199462890625,0.3246929168701172,0
0.7014873504638671,0.3246929168701172,0
0.7011028289794922,0.3264547348022461,0
0.7026569366455078,0.3264547348022461,0
0.7031908035278320,0.3280729293823242,0
0.7032377243041992,0.3280729293823242,0
0.7047048568725586,0.3298776626586914,0
0.7051506042480469,0.3298776626586914,0
0.7069856643676757,0.3302616119384765,0
0.7076723098754882,0.3302616119384765,0
0.7078639984130859,0.3317029953002930,0
0.7093122482299804,0.3317029953002930,0
0.7087823867797851,0.3331575393676758,0
0.7101596832275391,0.3331575393676758,0
0.7105545043945313,0.3344232559204102,0
0.7104206085205078,0.3344232559204102,0
0.7116182327270507,0.3358526229858398,0
0.7116931915283203,0.3358526229858398,0
0.7134000778198242,0.3357198715209961,0
0.7137748718261718,0.3357198715209961,0
0.7137107849121094,0.3367795944213867,0
0.7148632049560547,0.3367795944213867,0
0.7141708374023438,0.3378049850463867,0
0.7151922225952149,0.3378049850463867,0
0.7152935028076172,0.3386398315429687,0
0.7149221420288085,0.3386398315429687,0
0.7159395217895508,0.3396366119384766,0
0.7158216476440430,0.3396366119384766,0
0.7173271179199219,0.3391885757446289,0
0.7175868988037110,0.3391885757446289,0
0.7173248291015625,0.3399536132812500,0
0.7183816909790038,0.3399536132812500,0
0.7175296783447266,0.3408187866210937,0
0.7183794021606446,0.3408187866210937,0
0.7185287475585938,0.3414150238037109,0
0.7180429458618164,0.3414150238037109,0
0.7189481735229492,0.3423156738281250,0
0.7187833786010742,0.3423156738281250,0
0.7200822830200195,0.3416215896606445,0
0.7202350616455078,0.3416215896606445,0
0.7197435379028320,0.3420644760131836,0
0.7205949783325195,0.3420644760131836,0
0.7193721771240235,0.3423242568969727,0
0.7196720123291015,0.3423242568969727,0
0.7191884994506835,0.3417406082153320,0
0.7176784515380860,0.3417406082153320,0
0.7174678802490234,0.3403535842895508,0
0.7152614593505859,0.3403535842895508,0
0.7144289016723633,0.3354600906372070,0
0.7112245559692383,0.3354600906372070,0
0.7071756362915039,0.3293397903442383,0
0.7032463073730468,0.3293397903442383,0
0.6977371215820313,0.3216682434082031,0
0.6934375762939453,0.3216682434082031,0
0.6894899368286133,0.3147943496704101,0
0.6850444793701171,0.3147943496704101,0
0.6831802368164063,0.3103368759155273,0
0.6802516937255859,0.3103368759155273,0
0.6796102523803711,0.3059938430786133,0
0.6777093887329101,0.3059938430786133,0
0.6759023666381836,0.3038532257080078,0
0.6753730773925781,0.3038532257080078,0
0.6734567642211914,0.3025897979736328,0
0.6732828140258789,0.3025897979736328,0
0.6726236343383789,0.3017177581787109,0
0.6713310241699219,0.3017177581787109,0
0.6718574523925781,0.3014974594116211,0
0.6711273193359375,0.3014974594116211,0
0.6720937728881836,0.3001842498779297,0
0.6719718933105469,0.3001842498779297,0
0.6713241577148438,0.3003009796142578,0
0.6720285415649414,0.3003009796142578,0
0.6709344863891601,0.3006036758422851,0
0.6716171264648437,0.3006036758422851,0
0.6715415954589844,0.3008537292480469,0
0.6708875656127929,0.3008537292480469,0
0.6716371536254883,0.3013967514038086,0
0.6714271545410156,0.3013967514038086,0
0.6726539611816406,0.3005664825439453,0
0.6727632522583008,0.3005664825439453,0
0.6723003387451172,0.3011226654052734,0
0.6733337402343750,0.3011226654052734,0
0.6724222183227538,0.3017578125000000,0
0.6733371734619140,0.3017578125000000,0
0.6734802246093750,0.3024702072143555,0
0.6731203079223632,0.3024702072143555,0
0.6742624282836914,0.3036729812622070,0
0.6744832992553711,0.3036729812622070,0
0.6762348175048828,0.3038446426391602,0
0.6770570755004882,0.3038446426391602,0
0.6772802352905273,0.3056940078735351,0
0.6790706634521484,0.3056940078735351,0
0.6789836883544922,0.3076961517333984,0
0.6806825637817383,0.3076961517333984,0
0.6815002441406249,0.3096410751342774,0
0.6818555831909180,0.3096410751342774,0
0.6835281372070312,0.3117250442504882,0
0.6841444015502930,0.3117250442504882,0
0.6860034942626952,0.3121599197387695,0
0.6867834091186523,0.3121599197387695,0
0.6866495132446289,0.3135498046875000,0
0.6880079269409179,0.3135498046875000,0
0.6872097015380859,0.3143800735473632,0
0.6879907608032226,0.3143800735473632,0
0.6880233764648437,0.3147914886474609,0
0.6872034072875977,0.3147914886474609,0
0.6878042221069336,0.3149534225463867,0
0.6872497558593750,0.3149534225463867,0
0.6882139205932617,0.3135549545288086,0
0.6878900527954102,0.3135549545288086,0
0.6869213104248046,0.3133644104003906,0
0.6874483108520507,0.3133644104003906,0
0.6860910415649414,0.3132373809814453,0
0.6864395141601562,0.3132373809814453,0
0.6862632751464843,0.3131647109985352,0
0.6852544784545899,0.3131647109985352,0
0.6859371185302734,0.3133495330810547,0
0.6855628967285156,0.3133495330810547,0
0.6868446350097656,0.3125215530395508,0
0.6869029998779297,0.3125215530395508,0
0.6863594055175781,0.3130617141723633,0
0.6873453140258788,0.3130617141723633,0
0.6864624023437500,0.3137329101562500,0
0.6873212814331054,0.3137329101562500,0
0.6875215530395508,0.3144584655761719,0
0.6870306015014648,0.3144584655761719,0
0.6881469726562500,0.3153425216674804,0
0.6881469726562500,0.3153425216674804,0
0.6895923614501953,0.3163639068603515,0
0.6894115447998047,0.3163639068603515,0
0.6905714035034179,0.3176719665527344,0
0.6906354904174804,0.3176719665527344,0
0.6924333572387695,0.3176570892333984,0
0.6931268692016601,0.3176570892333984,0
0.6929838180541992,0.3191099166870117,0
0.6944686889648437,0.3191099166870117,0
0.6940692901611328,0.3205060958862305,0
0.6952417373657226,0.3205060958862305,0
0.6958854675292968,0.3220029830932617,0
0.6960428237915038,0.3220029830932617,0
0.6973663330078125,0.3237070083618164,0
0.6977153778076172,0.3237070083618164,0
0.6996213912963867,0.3240348815917969,0
0.7005495071411133,0.3240348815917969,0
0.7005506515502929,0.3257898330688476,0
0.7021299362182617,0.3257898330688476,0
0.7017477035522460,0.3273542404174805,0
0.7035427093505859,0.3273542404174805,0
0.7038476943969726,0.3288351058959961,0
0.7037858963012695,0.3288351058959961,0
0.7051443099975586,0.3304481506347656,0
0.7053863525390625,0.3304481506347656,0
0.7072649002075195,0.3306381225585938,0
0.7072975158691406,0.3306381225585938,0
0.7077821731567383,0.3320531845092773,0
0.7092081069946289,0.3320531845092773,0
0.7086633682250977,0.3332548141479492,0
0.7097219467163086,0.3332548141479492,0
0.7101945877075195,0.3344324111938476,0
0.7100584030151367,0.3344324111938476,0
0.7110860824584960,0.3355522155761719,0
0.7110929489135742,0.3355522155761719,0
0.7126939773559570,0.3353021621704101,0
0.7131946563720702,0.3353021621704101,0
0.7126630783081055,0.3363538742065429,0
0.7139665603637695,0.3363538742065429,0
0.7130922317504883,0.3371400833129883,0
0.7139362335205078,0.3371400833129883,0
0.7141822814941406,0.3379915237426758,0
0.7137187957763672,0.3379915237426758,0
0.7147350311279297,0.3387405395507813,0
0.7145130157470703,0.3387405395507813,0
0.7159893035888671,0.3381963729858398,0
0.7162982940673828,0.3381963729858398,0
0.7157049179077148,0.3389923095703125,0
0.7167646408081054,0.3389923095703125,0
0.7158823013305664,0.3395736694335937,0
0.7165798187255860,0.3395736694335937,0
0.7167800903320313,0.3401475906372070,0
0.7161323547363281,0.3401475906372070,0
0.7169551849365234,0.3406768798828125,0
0.7166501998901367,0.3406768798828125,0
0.7179502487182617,0.3398323059082031,0
0.7180458068847656,0.3398323059082031,0
0.7171966552734375,0.3401527404785156,0
0.7178134918212891,0.3401527404785156,0
0.7162685394287109,0.3397624969482422,0
0.7161209106445312,0.3397624969482422,0
0.7152854919433593,0.3383995056152344,0
0.7129154205322266,0.3383995056152344,0
0.7117778778076171,0.3350498199462891,0
0.7083074569702148,0.3350498199462891,0
0.7015354156494140,0.3279098510742187,0
0.6952754974365234,0.3247255325317382,0
0.6917312622070312,0.3170127868652344,0
0.6813720703125000,0.3099020004272461,0
0.6810413360595703,0.3082809448242188,0
0.6743482589721680,0.3050828933715820,0
0.6732290267944335,0.3032266616821289,0
0.6721492767333984,0.3013795852661132,0
0.6704710006713867,0.3003004074096680,0
0.6694885253906250,0.3003004074096680,0
0.6692670822143555,0.2991479873657226,0
0.6689426422119140,0.2993402481079102,0
0.6687423706054687,0.2997802734375000,0
0.6693706512451172,0.2993642807006836,0
0.6693809509277343,0.2993642807006836,0
0.6695520401000976,0.2998037338256836,0
0.6706129074096679,0.2991634368896484,0
0.6702735900878906,0.3000583648681641,0
0.6707359313964844,0.3006151199340820,0
0.6704675674438476,0.3000692367553711,0
0.6715152740478515,0.3010654449462891,0
0.6719541549682617,0.3008811950683594,0
0.6719129562377929,0.3017148971557617,0
0.6732707977294922,0.3028444290161132,0
0.6731231689453124,0.3026905059814453,0
0.6745719909667969,0.3040700912475586,0
0.6768230438232422,0.3046268463134765,0
0.6773288726806640,0.3062576293945312,0
0.6792177200317383,0.3082265853881836,0
0.6829410552978515,0.3089349746704101,0
0.6822235107421875,0.3106784820556641,0
0.6837947845458984,0.3119522094726562,0
0.6860509872436523,0.3118537902832031,0
0.6853797912597656,0.3128665924072265,0
0.6855657577514648,0.3131629943847656,0
0.6852064132690430,0.3135440826416016,0
0.6852373123168946,0.3124786376953125,0
0.6846879959106446,0.3120220184326172,0
0.6836311340332031,0.3120386123657227,0
0.6842147827148437,0.3104639053344727,0
0.6835493087768555,0.3110418319702148,0
0.6829399108886719,0.3108266830444336,0
0.6824197769165039,0.3102733612060547,0
0.6827688217163086,0.3105909347534180,0
0.6833868026733398,0.3099729537963867,0
0.6831150054931641,0.3098224639892578,0
0.6843360900878906,0.3109376907348633,0
0.6853517532348633,0.3129701614379883,0
0.6875947952270508,0.3152835845947266,0
0.6910583496093750,0.3181972503662109,0
0.6930284500122070,0.3200626373291016,0
0.6977909088134765,0.3233036041259765,0
0.7007148742675781,0.3251546859741211,0
0.7009111404418945,0.3291028976440429,0
0.7025007247924805,0.3281822204589844,0
0.7042236328125000,0.3296081542968750,0
0.7054224014282227,0.3307697296142578,0
0.7055700302124023,0.3307697296142578,0
0.7078176498413086,0.3306976318359375,0
0.7073450088500977,0.3320308685302734,0
0.7080219268798827,0.3321573257446289,0
0.7096567153930664,0.3325990676879882,0
0.7102106094360351,0.3329074859619141,0
0.7109287261962890,0.3339534759521484,0
0.7102140426635742,0.3349267959594727,0
0.7116720199584960,0.3346492767333984,0
0.7114414215087891,0.3358263015747070,0
0.7119884490966797,0.3357324600219727,0
0.7120038986206054,0.3365947723388672,0
0.7138601303100586,0.3362056732177734,0
0.7131420135498047,0.3372974395751953,0
0.7137165069580078,0.3380172729492187,0
0.7136037826538085,0.3388114929199219,0
0.7146640777587890,0.3387319564819336,0
0.7139917373657226,0.3387388229370117,0
0.7150514602661132,0.3393173217773438,0
0.7150136947631835,0.3390420913696289,0
0.7159320831298828,0.3397785186767578,0
0.7157964706420898,0.3398603439331054,0
0.7159051895141602,0.3407638549804687,0
0.7163629531860352,0.3397373199462890,0
0.7148838043212891,0.3398374557495117,0
0.7150382995605469,0.3388166427612305,0
0.7122058868408203,0.3370536804199218,0
0.7101099014282226,0.3334510803222656,0
0.7067018508911133,0.3300264358520508,0
0.6982995986938476,0.3225288391113281,0
0.6947113037109375,0.3225288391113281,0
0.6854667663574219,0.3116758346557617,0
0.6823362350463867,0.3097892761230469,0
0.6782192230224610,0.3049718856811524,0
0.6737388610839844,0.3028181076049805,0
0.6733297348022461,0.3026767730712890,0
0.6709785461425781,0.3009572982788086,0
0.6716217041015625,0.2998226165771484,0
0.6695966720581055,0.2994014739990234,0
0.6694021224975586,0.2988332748413086,0
0.6698970794677734,0.2982439041137695,0
0.6698970794677734,0.2986158370971679,0
0.6699594497680664,0.2988945007324219,0
0.6692453384399414,0.2995594024658203,0
0.6702266693115234,0.2987600326538086,0
0.6697397232055664,0.2997819900512695,0
0.6700292587280273,0.2993024826049804,0
0.6698827743530273,0.3001401901245117,0
0.6714654922485351,0.2995702743530274,0
0.6708080291748046,0.3005292892456055,0
0.6712217330932617,0.3011512756347656,0
0.6713378906249999,0.3018693923950195,0
0.6724056243896485,0.3021835327148437,0
0.6720863342285156,0.3021091461181640,0
0.6738824844360352,0.3032609939575195,0
0.6738567352294922,0.3033508300781250,0
0.6760231018066406,0.3052356719970703,0
0.6766908645629882,0.3052356719970703,0
0.6786237716674804,0.3086900711059570,0
0.6804691314697265,0.3073923110961914,0
0.6811855316162109,0.3095180511474609,0
0.6816392898559570,0.3096662521362304,0
0.6830108642578124,0.3109165191650390,0
0.6848247528076171,0.3109165191650390,0
0.6845872879028320,0.3122589111328125,0
0.6859119415283202,0.3120374679565430,0
0.6856498718261719,0.3121673583984375,0
0.6860475540161133,0.3117839813232422,0
0.6847743988037109,0.3120237350463867,0
0.6841352462768554,0.3126834869384765,0
0.6846410751342773,0.3114040374755859,0
0.6830303192138671,0.3115373611450195,0
0.6825233459472656,0.3116334915161132,0
0.6829587936401367,0.3104215621948242,0
0.6832557678222656,0.3109239578247070,0
0.6823608398437500,0.3109239578247070,0
0.6829290390014648,0.3105417251586914,0
0.6829290390014648,0.3114515304565429,0
0.6844842910766601,0.3103048324584961,0
0.6843778610229492,0.3103048324584961,0
0.6836872100830078,0.3111379623413086,0
0.6850290298461914,0.3111379623413086,0
0.6840980529785156,0.3115036010742188,0
0.6856824874877929,0.3115036010742188,0
0.6852149963378906,0.3127229690551758,0
0.6846891403198242,0.3127229690551758,0
0.6855560302734375,0.3138067245483399,0
0.6856338500976562,0.3138067245483399,0
0.6877733230590820,0.3133501052856445,0
0.6879667282104492,0.3133501052856445,0
0.6875942230224609,0.3147514343261719,0
0.6893051147460937,0.3147514343261719,0
0.6886476516723633,0.3156108856201172,0
0.6900644302368164,0.3156108856201172,0
0.6903865814208984,0.3173749923706055,0
0.6901977539062499,0.3173749923706055,0
0.6913221359252929,0.3189857482910156,0
0.6920030593872070,0.3185268402099609,0
0.6938083648681640,0.3204906463623047,0
0.6961343765258788,0.3206520080566406,0
0.6957338333129882,0.3231393814086914,0
0.6957338333129882,0.3217981338500976,0
0.6976718902587891,0.3238420486450195,0
0.6975637435913086,0.3238420486450195,0
0.6987905502319336,0.3255094528198242,0
0.6990571975708008,0.3255094528198242,0
0.7016183853149414,0.3254779815673828,0
0.7019548416137695,0.3254779815673828,0
0.7017957687377929,0.3271219253540039,0
0.7035352706909179,0.3271219253540039,0
0.7029687881469726,0.3280208587646484,0
0.7044319152832031,0.3280208587646484,0
0.7046110153198242,0.3298124313354492,0
0.7043775558471680,0.3298124313354492,0
0.7054046630859375,0.3312149047851562,0
0.7055391311645508,0.3312149047851562,0
0.7078451156616211,0.3307685852050781,0
0.7079841613769531,0.3307685852050781,0
0.7075401306152344,0.3321401596069336,0
0.7091171264648437,0.3321401596069336,0
0.7083675384521484,0.3327260971069336,0
0.7096120834350585,0.3327260971069336,0
0.7096549987792968,0.3342098236083984,0
0.7091205596923827,0.3342098236083984,0
0.7101499557495117,0.3353382110595703,0
0.7100761413574218,0.3353382110595703,0
0.7122819900512695,0.3346773147583008,0
0.7123380661010742,0.3346773147583008,0
0.7116926193237304,0.3358022689819336,0
0.7132083892822265,0.3358022689819336,0
0.7122940063476563,0.3362485885620117,0
0.7134258270263671,0.3362485885620117,0
0.7134916305541992,0.3375846862792969,0
0.7127586364746094,0.3375846862792969,0
0.7137840270996093,0.3384521484375000,0
0.7135797500610351,0.3384521484375000,0
0.7156648635864258,0.3376556396484375,0
0.7156986236572266,0.3376556396484375,0
0.7149513244628906,0.3387010574340820,0
0.7164041519165039,0.3387010574340820,0
0.7154342651367187,0.3389574050903320,0
0.7164539337158203,0.3389574050903320,0
0.7163463592529297,0.3401224136352539,0
0.7154354095458985,0.3401224136352539,0
0.7164321899414062,0.3407072067260742,0
0.7160436630249023,0.3407072067260742,0
0.7178770065307617,0.3395130157470703,0
0.7175977706909179,0.3395130157470703,0
0.7163555145263671,0.3397584915161133,0
0.7171016693115234,0.3397584915161133,0
0.7153524398803711,0.3384601593017578,0
0.7148820877075195,0.3384601593017578,0
0.7133045196533203,0.3366611480712891,0
0.7099033355712890,0.3366611480712891,0
0.7080854415893555,0.3319713592529297,0
0.7037389755249023,0.3319713592529297,0
0.7015989303588867,0.3235004425048828,0
0.6963764190673828,0.3235004425048828,0
0.6911167144775391,0.3164194107055664,0
0.6880359649658203,0.3164194107055664,0
0.6837684631347656,0.3103775024414062,0
0.6814401626586913,0.3103775024414062,0
0.6790786743164062,0.3071107864379883,0
0.6758977890014648,0.3071107864379883,0
0.6752363204956054,0.3044895172119140,0
0.6732278823852539,0.3044895172119140,0
0.6739740371704102,0.3012771606445312,0
0.6727386474609375,0.3012771606445312,0
0.6709453582763671,0.3005064010620117,0
0.6715478897094727,0.3005064010620117,0
0.6699497222900390,0.2995296478271484,0
0.6702833175659180,0.2995296478271484,0
0.6699394226074219,0.2999811172485352,0
0.6687131881713867,0.2999811172485352,0
0.6695789337158203,0.2999525070190430,0
0.6690513610839843,0.2999525070190430,0
0.6707799911499023,0.2987680435180664,0
0.6707239151000977,0.2987680435180664,0
0.6695943832397461,0.2993768692016601,0
0.6708978652954102,0.2993768692016601,0
0.6698553085327148,0.2993923187255859,0
0.6706729888916015,0.2993923187255859,0
0.6706415176391601,0.3005172729492188,0
0.6697391510009766,0.3005172729492188,0
0.6707599639892577,0.3008863449096680,0
0.6705299377441406,0.3008863449096680,0
0.6725406646728516,0.3001138687133789,0
0.6727203369140625,0.3001138687133789,0
0.6717218399047852,0.3012554168701172,0
0.6734155654907227,0.3012554168701172,0
0.6727231979370117,0.3020181655883789,0
0.6740123748779296,0.3020181655883789,0
0.6745027542114258,0.3039705276489258,0
0.6742916107177734,0.3039705276489258,0
0.6760185241699218,0.3056425094604492,0
0.6766582489013672,0.3056425094604492,0
0.6791833877563477,0.3061288833618164,0
0.6801223754882812,0.3061288833618164,0
0.6796915054321289,0.3082523345947266,0
0.6818721771240234,0.3082523345947266,0
0.6814538955688476,0.3095191955566406,0
0.6828912734985352,0.3095191955566406,0
0.6833307266235351,0.3114028930664062,0
0.6827819824218749,0.3114028930664062,0
0.6840476989746094,0.3121290206909180,0
0.6837953567504883,0.3121290206909180,0
0.6855360031127929,0.3111694335937500,0
0.6854295730590820,0.3111694335937500,0
0.6840345382690429,0.3114858627319336,0
0.6851606369018555,0.3114858627319336,0
0.6837152481079102,0.3108936309814453,0
0.6839092254638671,0.3108936309814453,0
0.6834692001342774,0.3111774444580078,0
0.6819992065429688,0.3111774444580078,0
0.6826635360717773,0.3106676101684570,0
0.6817651748657226,0.3106676101684570,0
0.6832757949829101,0.3090030670166016,0
0.6829650878906249,0.3090030670166016,0
0.6815259933471679,0.3093498229980469,0
0.6826887130737305,0.3093498229980469,0
0.6815666198730469,0.3090997695922851,0
0.6821743011474609,0.3090997695922851,0
0.6821033477783203,0.3101423263549805,0
0.6811105728149414,0.3101423263549805,0
0.6822687149047851,0.3103843688964844,0
0.6819425582885742,0.3103843688964844,0
0.6839212417602539,0.3096279144287109,0
0.6840539932250976,0.3096279144287109,0
0.6829587936401367,0.3106985092163086,0
0.6846588134765624,0.3106985092163086,0
0.6836877822875976,0.3110807418823242,0
0.6845586776733398,0.3110807418823242,0
0.6848745346069336,0.3126657485961914,0
0.6840602874755859,0.3126657485961914,0
0.6855148315429688,0.3133615493774414,0
0.6855382919311523,0.3133615493774414,0
0.6876646041870117,0.3129724502563476,0
0.6880582809448242,0.3129724502563476,0
0.6869859695434570,0.3143611907958984,0
0.6890018463134765,0.3143611907958984,0
0.6880044937133789,0.3149768829345703,0
0.6890819549560546,0.3149768829345703,0
0.6894224166870117,0.3168680191040039,0
0.6887020111083985,0.3168680191040039,0
0.6902961730957031,0.3176176071166992,0
0.6903768539428711,0.3176176071166992,0
0.6925655364990234,0.3173011779785156,0
0.6928916931152344,0.3173011779785156,0
0.6918050765991210,0.3187030792236328,0
0.6937580108642578,0.3187030792236328,0
0.6928201675415039,0.3191946029663086,0
0.6937820434570312,0.3191946029663086,0
0.6939268112182617,0.3207527160644531,0
0.6929849624633789,0.3207527160644531,0
0.6943536758422851,0.3212316513061523,0
0.6942409515380860,0.3212316513061523,0
0.6961498260498047,0.3207223892211914,0
0.6961669921875000,0.3207223892211914,0
0.6951971054077148,0.3218639373779297,0
0.6968936920166016,0.3218639373779297,0
0.6960622787475585,0.3221895217895508,0
0.6969749450683593,0.3221895217895508,0
0.6970401763916015,0.3237670898437500,0
0.6962980270385742,0.3237670898437500,0
0.6976490020751953,0.3244531631469726,0
0.6978555679321289,0.3244531631469726,0
0.6999526977539062,0.3241807937622070,0
0.6999744415283203,0.3241807937622070,0
0.6990034103393554,0.3251403808593750,0
0.7011119842529296,0.3251403808593750,0
0.6999755859375000,0.3254671096801758,0
0.7016389846801757,0.3254671096801758,0
0.7008527755737305,0.3269227981567382,0
0.7011148452758789,0.3269227981567382,0
0.7012281417846680,0.3274778366088867,0
0.7024572372436523,0.3274778366088867,0
0.7032320022583007,0.3271923065185547,0
0.7043375015258789,0.3271923065185547,0
0.7022186279296875,0.3278972625732422,0
0.7025785446166992,0.3278972625732422,0
0.7027805328369140,0.3281026840209961,0
0.7049978256225585,0.3281026840209961,0
0.7034608840942382,0.3294576644897461,0
0.7044210433959961,0.3294576644897461,0
0.7038042068481445,0.3298295974731445,0
0.7051780700683593,0.3298295974731445,0
0.7055030822753906,0.3293907165527344,0
0.7040714263916016,0.3297042846679688,0
0.7039873123168945,0.3296092987060547,0
0.7049486160278320,0.3296092987060547,0
0.7036308288574219,0.3299818038940430,0
0.7029121398925781,0.3299818038940430,0
0.7020647048950195,0.3287652969360351,0
0.7014564514160156,0.3287652969360351,0
0.7006507873535156,0.3257789611816406,0
0.6988683700561523,0.3257789611816406,0
0.6950082778930664,0.3220699310302734,0
0.6936115264892578,0.3220699310302734,0
0.6896118164062500,0.3173006057739258,0
0.6871467590332031,0.3173006057739258,0
0.6842908859252930,0.3132986068725586,0
0.6809108734130859,0.3132986068725586,0
0.6791822433471679,0.3090391159057617,0
0.6769357681274414,0.3090391159057617,0
0.6762130737304687,0.3050090789794922,0
0.6740335464477539,0.3050090789794922,0
0.6712165832519531,0.3022556304931641,0
0.6708372116088867,0.3022556304931641,0
0.6684522628784180,0.2998443603515625,0
0.6677576065063476,0.2998443603515625,0
0.6663734436035156,0.2988029479980469,0
0.6650699615478516,0.2988029479980469,0
0.6647626876831054,0.2973375320434570,0
0.6644124984741211,0.2973375320434570,0
0.6649801254272460,0.2959459304809570,0
0.6646425247192382,0.2959459304809570,0
0.6631153106689452,0.2956741333007812,0
0.6643518447875977,0.2956741333007812,0
0.6631227493286133,0.2953542709350586,0
0.6636629104614258,0.2953542709350586,0
0.6635353088378906,0.2959733963012695,0
0.6630346298217773,0.2959733963012695,0
0.6636377334594726,0.2958829879760742,0
0.6636548995971679,0.2958829879760742,0
0.6651678085327148,0.2954069137573242,0
0.6651094436645507,0.2954069137573242,0
0.6641944885253906,0.2958635330200195,0
0.6657880783081055,0.2958635330200195,0
0.6648405075073242,0.2960346221923828,0
0.6657348632812500,0.2960346221923828,0
0.6656993865966797,0.2972436904907226,0
0.6655311584472656,0.2972436904907226,0
0.6662252426147460,0.2977386474609375,0
0.6668712615966796,0.2977386474609375,0
0.6686491012573242,0.2978485107421875,0
0.6694347381591796,0.2978485107421875,0
0.6685993194580078,0.2994169235229492,0
0.6714752197265624,0.2994169235229492,0
0.6705871582031250,0.3004257202148438,0
0.6727558135986328,0.3004257202148438,0
0.6725887298583985,0.3030561447143554,0
0.6734699249267578,0.3030561447143554,0
0.6744472503662109,0.3048019409179688,0
0.6758251190185547,0.3048019409179688,0
0.6785070419311523,0.3054273605346680,0
0.6796382904052735,0.3054273605346680,0
0.6787399291992188,0.3075542449951172,0
0.6818195343017578,0.3075542449951172,0
0.6806064605712890,0.3079856872558593,0
0.6823242187499999,0.3079856872558593,0
0.6817113876342773,0.3102161407470703,0
0.6815877914428711,0.3102161407470703,0
0.6825668334960937,0.3109823226928711,0
0.6827127456665039,0.3109823226928711,0
0.6854255676269531,0.3105503082275390,0
0.6853574752807617,0.3105503082275390,0
0.6842021942138672,0.3114847183227539,0
0.6863451004028320,0.3114847183227539,0
0.6848974227905273,0.3111145019531250,0
0.6861162185668945,0.3111145019531250,0
0.6854009628295898,0.3125930786132812,0
0.6849660873413086,0.3125930786132812,0
0.6855875015258789,0.3130216598510742,0
0.6855085372924804,0.3130216598510742,0
0.6878814697265625,0.3123750686645508,0
0.6876869201660156,0.3123750686645508,0
0.6867542266845703,0.3132133483886719,0
0.6888301849365234,0.3132133483886719,0
0.6877017974853515,0.3130233764648437,0
0.6888977050781250,0.3130233764648437,0
0.6883512496948242,0.3146718978881836,0
0.6882247924804688,0.3146718978881836,0
0.6890167236328125,0.3152509689331054,0
0.6891345977783203,0.3152509689331054,0
0.6915796279907226,0.3149276733398437,0
0.6917255401611327,0.3149276733398437,0
0.6911361694335937,0.3161384582519531,0
0.6934650421142577,0.3161384582519531,0
0.6927137374877930,0.3165807723999023,0
0.6943096160888672,0.3165807723999023,0
0.6944417953491211,0.3189245223999023,0
0.6947845458984375,0.3189245223999023,0
0.6961578369140625,0.3204339981079101,0
0.6968038558959960,0.3204339981079101,0
0.6998977661132812,0.3210691452026367,0
0.7005998611450195,0.3210691452026367,0
0.7007440567016602,0.3233350753784179,0
0.7036994934082031,0.3233350753784179,0
0.7036909103393555,0.3248594284057617,0
0.7059099197387695,0.3248594284057617,0
0.7065942764282226,0.3280786514282226,0
0.7071424484252929,0.3280786514282226,0
0.7089700698852539,0.3299674987792969,0
0.7093019485473633,0.3299674987792969,0
0.7118803024291992,0.3295217514038086,0
0.7116651535034180,0.3324766159057617,0
0.7140604019165039,0.3342212677001953,0
0.7130510330200195,0.3342212677001953,0
0.7179050445556641,0.3344507217407227,0
0.7168642044067383,0.3344507217407227,0
0.7180252075195312,0.3367292404174805,0
0.7184366226196289,0.3367292404174805,0
0.7203546524047851,0.3376207351684570,0
0.7198328018188477,0.3376207351684570,0
0.7229095458984375,0.3401699066162109,0
0.7200347900390625,0.3401699066162109,0
0.7245437622070312,0.3405332565307617,0
0.7226280212402344,0.3405332565307617,0
0.7274711608886718,0.3400651931762695,0
0.7269126892089843,0.3400651931762695,0
0.7269058227539062,0.3414482116699218,0
0.7274957656860351,0.3414482116699218,0
0.7279941558837890,0.3415746688842773,0
0.7269624710083008,0.3415746688842773,0
0.7287757873535156,0.3422882080078125,0
0.7255451202392578,0.3422882080078125,0
0.7282167434692383,0.3405767440795898,0
0.7263925552368163,0.3405767440795898,0
0.7283723831176757,0.3391588211059570,0
0.7285583496093749,0.3391588211059570,0
0.7261802673339843,0.3399101257324219,0
0.7270992279052734,0.3399101257324219,0
0.7268108367919922,0.3405715942382813,0
0.7260566711425781,0.3405715942382813,0
0.7286195755004883,0.3417875289916992,0
0.7263462066650390,0.3417875289916992,0
0.7289085388183594,0.3413778305053711,0
0.7280221939086914,0.3413778305053711,0
0.7303195953369140,0.3412782669067383,0
0.7302984237670899,0.3412782669067383,0
0.7298807144165039,0.3419609069824219,0
0.7300243377685547,0.3419609069824219,0
0.7301771163940429,0.3418601989746093,0
0.7299173355102538,0.3418601989746093,0
0.7303710937500000,0.3425073623657227,0
0.7285228729248047,0.3425073623657227,0
0.7300065994262696,0.3407976150512695,0
0.7284399032592773,0.3407976150512695,0
0.7288404464721679,0.3387691497802734,0
0.7283374786376953,0.3387691497802734,0
0.7242444992065430,0.3370388031005859,0
0.7230251312255859,0.3370388031005859,0
0.7201314926147461,0.3332582473754883,0
0.7166908264160156,0.3332582473754883,0
0.7151126861572266,0.3287298202514649,0
0.7100629806518555,0.3287298202514649,0
0.7087045669555664,0.3221735000610351,0
0.7050693511962890,0.3221735000610351,0
0.7033922195434570,0.3168565750122070,0
0.7020664215087891,0.3168565750122070,0
0.6975236892700195,0.3139680862426757,0
0.6966585159301758,0.3139680862426757,0
0.6943044662475586,0.3113565444946289,0
0.6926256179809570,0.3113565444946289,0
0.6925260543823242,0.3099094390869140,0
0.6898572921752929,0.3099094390869140,0
0.6905313491821289,0.3071645736694336,0
0.6896329879760742,0.3071645736694336,0
0.6896347045898438,0.3053524017333984,0
0.6904815673828125,0.3053524017333984,0
0.6871845245361328,0.3053409576416016,0
0.6882225036621094,0.3053409576416016,0
0.6868783950805664,0.3051750183105469,0
0.6864395141601562,0.3051750183105469,0
0.6872909545898437,0.3055589675903320,0
0.6855686187744140,0.3055589675903320,0
0.6871067047119140,0.3039464950561523,0
0.6871421813964843,0.3039464950561523,0
0.6872932434082031,0.3031631469726562,0
0.6892656326293946,0.3031631469726562,0
0.6852075576782226,0.3040735244750977,0
0.6872245788574218,0.3040735244750977,0
0.6851509094238281,0.3042383193969727,0
0.6854896545410156,0.3042383193969727,0
0.6856201171874999,0.3051813125610351,0
0.6848281860351563,0.3051813125610351,0
0.6852647781372070,0.3043115615844726,0
0.6862112045288086,0.3043115615844726,0
0.6860006332397460,0.3043796539306641,0
0.6888616561889648,0.3043796539306641,0
0.6851835250854492,0.3063371658325195,0
0.6888084411621094,0.3063371658325195,0
0.6865837097167968,0.3075605392456054,0
0.6896060943603516,0.3075605392456054,0
0.6883123397827148,0.3099964141845703,0
0.6901863098144531,0.3099964141845703,0
0.6896627426147460,0.3111082077026367,0
0.6918914794921874,0.3111082077026367,0
0.6919092178344727,0.3120105743408203,0
0.6945854187011719,0.3120105743408203,0
0.6917621612548828,0.3141014099121094,0
0.6948011398315429,0.3141014099121094,0
0.6930433273315429,0.3150552749633789,0
0.6952285766601562,0.3150552749633789,0
0.6943336486816406,0.3169538497924805,0
0.6944858551025390,0.3169538497924805,0
0.6943840026855469,0.3169481277465820,0
0.6947004318237304,0.3169481277465820,0
0.6952548980712890,0.3164382934570312,0
0.6943090438842773,0.3175289154052734,0
0.6940441131591797,0.3166191101074219,0
0.6948045730590821,0.3162712097167968,0
0.6950534820556641,0.3162889480590820,0
0.6933076858520507,0.3163913726806640,0
0.6933099746704101,0.3160600662231445,0
0.6942529678344727,0.3160600662231445,0
0.6929672241210937,0.3164817810058594,0
0.6938644409179687,0.3161790847778320,0
0.6929803848266601,0.3157161712646484,0
0.6933139801025391,0.3167032241821289,0
0.6928133010864258,0.3166116714477539,0
0.6933889389038086,0.3164966583251953,0
0.6952589035034179,0.3164474487304688,0
0.6948154449462890,0.3180856704711914,0
0.6959060668945313,0.3177114486694336,0
0.6986921310424804,0.3185897827148437,0
0.6992265701293945,0.3193330764770508,0
0.6990234375000000,0.3212350845336914,0
0.7018695831298828,0.3226816177368164,0
0.7044307708740234,0.3226816177368164,0
0.7048765182495117,0.3261005401611328,0
0.7075258255004883,0.3275350570678711,0
0.7088590621948242,0.3279029846191406,0
0.7120817184448242,0.3316320419311523,0
0.7130441665649414,0.3320062637329101,0
0.7163583755493164,0.3331581115722656,0
0.7198362350463867,0.3342447280883789,0
0.7188199996948242,0.3366846084594726,0
0.7209789276123046,0.3375040054321289,0
0.7217382431030274,0.3384155273437500,0
0.7236986160278320,0.3402036666870117,0
0.7236860275268554,0.3393928527832031,0
0.7237117767333984,0.3404108047485351,0
0.7267175674438476,0.3403364181518554,0
0.7261093139648437,0.3423196792602539,0
0.7269544601440430,0.3405487060546875,0
0.7291208267211914,0.3407747268676758,0
0.7284765243530273,0.3423305511474609,0
0.7278722763061524,0.3433536529541015,0
0.7287672042846679,0.3434617996215820,0
0.7304288864135742,0.3433067321777344,0
0.7288902282714843,0.3444665908813476,0
0.7298337936401367,0.3433662414550781,0
0.7313095092773437,0.3443063735961914,0
0.7295242309570312,0.3461454391479492,0
0.7295242309570312,0.3452070236206055,0
0.7303476333618164,0.3450605392456055,0
0.7320550918579102,0.3449117660522461,0
0.7302886962890625,0.3461420059204102,0
0.7312717437744141,0.3461420059204102,0
0.7327955245971679,0.3458106994628906,0
0.7333213806152343,0.3460012435913086,0
0.7330827713012695,0.3468206405639648,0
0.7315263748168945,0.3470689773559570,0
0.7323400497436523,0.3461917877197265,0
0.7308671951293945,0.3481464385986328,0
0.7303104400634766,0.3463754653930664,0
0.7299579620361328,0.3464630126953125,0
0.7295207977294922,0.3449254989624023,0
0.7281166076660156,0.3451829910278320,0
0.7251274108886718,0.3416416168212891,0
0.7227499008178710,0.3416416168212891,0
0.7179508209228516,0.3360311508178711,0
0.7122402191162109,0.3298748016357422,0
0.7082078933715820,0.3260627746582031,0
0.7006135940551758,0.3187620162963867,0
0.6960771560668945,0.3187620162963867,0
0.6906927108764648,0.3139234542846679,0
0.6906927108764648,0.3122692108154297,0
0.6873739242553710,0.3091260910034180,0
0.6860223770141601,0.3094791412353515,0
0.6843292236328125,0.3074312210083008,0
0.6834571838378906,0.3074312210083008,0
0.6830434799194336,0.3064928054809570,0
0.6830434799194336,0.3073717117309570,0
0.6826612472534179,0.3065248489379883,0
0.6827751159667969,0.3064029693603516,0
0.6832889556884766,0.3077190399169922,0
0.6830738067626952,0.3077190399169922,0
0.6840270996093750,0.3087741851806641,0
0.6848711013793946,0.3076543807983398,0
0.6856109619140625,0.3096187591552734,0
0.6857522964477539,0.3094379425048828,0
0.6878997802734375,0.3107889175415039,0
0.6899053573608398,0.3113628387451172,0
0.6914348602294922,0.3146306991577149,0
0.6939937591552734,0.3143405914306641,0
0.6970161437988281,0.3165676116943359,0
0.6978412628173828,0.3180713653564453,0
0.7001764297485351,0.3220155715942383,0
0.7043563842773437,0.3228807449340820,0
0.7043563842773437,0.3238637924194336,0
0.7076631546020508,0.3277101516723633,0
0.7088853836059570,0.3279664993286133,0
0.7118207931518554,0.3294044494628906,0
0.7141393661499024,0.3294044494628906,0
0.7141159057617187,0.3316280364990234,0
0.7154325485229492,0.3317190170288086,0
0.7153650283813476,0.3320474624633789,0
0.7171474456787109,0.3320766448974609,0
0.7160522460937500,0.3329681396484375,0
0.7166484832763672,0.3329681396484375,0
0.7155647277832031,0.3323999404907226,0
0.7162485122680664,0.3333457946777343,0
0.7151578903198242,0.3320692062377930,0
0.7146509170532226,0.3309082031250000,0
0.7151063919067383,0.3309082031250000,0
0.7124364852905273,0.3312183380126953,0
0.7124364852905273,0.3299005508422851,0
0.7115118026733398,0.3287223815917968,0
0.7122854232788086,0.3270452499389648,0
0.7098329544067382,0.3282388687133789,0
0.7103416442871093,0.3282388687133789,0
0.7108325958251953,0.3276311874389649,0
0.7108325958251953,0.3276082992553711,0
0.7112983703613281,0.3297769546508789,0
0.7128696441650391,0.3304355621337891,0
0.7153135299682617,0.3312961578369141,0
0.7147865295410156,0.3312961578369141,0
0.7159320831298828,0.3322935104370117,0
0.7156866073608398,0.3333978652954102,0
0.7190637588500977,0.3338539123535156,0
0.7173517227172851,0.3363824844360351,0
0.7191753387451172,0.3366331100463867,0
0.7194774627685546,0.3388051986694336,0
0.7212896347045898,0.3391427993774414,0
0.7208753585815429,0.3397705078125000,0
0.7226142883300781,0.3397619247436524,0
0.7229227066040039,0.3400262832641601,0
0.7242324829101562,0.3421119689941406,0
0.7240293502807617,0.3417142868041992,0
0.7252058029174805,0.3427162170410156,0
0.7250827789306641,0.3418516159057617,0
0.7251806259155273,0.3436283111572265,0
0.7259153366088867,0.3429559707641601,0
0.7271947860717773,0.3434972763061523,0
0.7287391662597656,0.3427934646606445,0
0.7282281875610351,0.3451772689819336,0
0.7294155120849609,0.3450262069702149,0
0.7313615798950195,0.3456098556518555,0
0.7324802398681640,0.3473533630371093,0
0.7330432891845703,0.3492376327514649,0
0.7337059020996094,0.3494716644287109,0
0.7358968734741210,0.3510589599609375,0
0.7335319519042969,0.3501068115234375,0
0.7341207504272461,0.3501142501831054,0
0.7357046127319335,0.3496187210083008,0
0.7340847015380859,0.3518360137939453,0
0.7355169296264649,0.3505096435546875,0
0.7355375289916992,0.3505096435546875,0
0.7366178512573242,0.3504032135009765,0
0.7373680114746094,0.3504032135009765,0
0.7348737716674805,0.3515012741088867,0
0.7369016647338867,0.3515012741088867,0
0.7358877182006835,0.3513496398925781,0
0.7354236602783203,0.3513496398925781,0
0.7361160278320312,0.3529907226562500,0
0.7339519500732422,0.3529907226562500,0
0.7362361907958984,0.3511264801025391,0
0.7350986480712890,0.3511264801025391,0
0.7364084243774414,0.3499940872192382,0
0.7352405548095703,0.3499940872192382,0
0.7325603485107421,0.3489555358886718,0
0.7324539184570312,0.3489555358886718,0
0.7303802490234375,0.3457305908203125,0
0.7274528503417969,0.3457305908203125,0
0.7256258010864257,0.3427093505859375,0
0.7201904296875000,0.3427093505859375,0
0.7191513061523437,0.3349611282348633,0
0.7140787124633788,0.3349611282348633,0
0.7120279312133789,0.3275917053222656,0
0.7075086593627929,0.3275917053222656,0
0.7026151657104492,0.3223657608032227,0
0.7008825302124023,0.3223657608032227,0
0.6981119155883789,0.3177915573120117,0
0.6956325531005859,0.3177915573120117,0
0.6948165893554688,0.3168571472167969,0
0.6915630340576172,0.3168571472167969,0
0.6932550430297851,0.3139966964721679,0
0.6913072586059570,0.3139966964721679,0
0.6930622100830078,0.3127590179443359,0
0.6917055130004882,0.3127590179443359,0
0.6905261993408203,0.3129421234130859,0
0.6913232803344727,0.3129421234130859,0
0.6912374496459961,0.3124156951904297,0
0.6907648086547852,0.3124156951904297,0
0.6915510177612304,0.3144556045532226,0
0.6899368286132812,0.3144556045532226,0
0.6926713943481445,0.3138221740722656,0
0.6923023223876953,0.3138221740722656,0
0.6946844100952149,0.3144081115722656,0
0.6951072692871093,0.3144081115722656,0
0.6943782806396485,0.3163375854492188,0
0.6969995498657227,0.3163375854492188,0
0.6969995498657227,0.3176828384399414,0
0.6983802795410156,0.3176828384399414,0
0.6993324279785156,0.3214164733886719,0
0.7004219055175781,0.3214164733886719,0
0.7026821136474609,0.3227359771728516,0
0.7037927627563476,0.3227359771728516,0
0.7067630767822265,0.3251134872436524,0
0.7085300445556640,0.3251134872436524,0
0.7081415176391601,0.3284460067749023,0
0.7116640090942382,0.3284460067749023,0
0.7118968963623047,0.3305557250976562,0
0.7136953353881835,0.3305557250976562,0
0.7144901275634765,0.3345159530639648,0
0.7145822525024413,0.3345159530639648,0
0.7172195434570312,0.3350784301757813,0
0.7179141998291015,0.3350784301757813,0
0.7199048995971680,0.3361312866210938,0
0.7206785202026367,0.3361312866210938,0
0.7192926406860352,0.3377964019775391,0
0.7216638565063477,0.3377964019775391,0
0.7208570480346680,0.3380350112915039,0
0.7224889755249023,0.3379503250122070,0
0.7224889755249023,0.3403232574462891,0
0.7214572906494140,0.3403232574462891,0
0.7226125717163085,0.3393819808959961,0
0.7226509094238281,0.3393819808959961,0
0.7240070343017578,0.3393058776855469,0
0.7244419097900391,0.3393058776855469,0
0.7222881317138672,0.3402780532836914,0
0.7245763778686524,0.3402780532836914,0
0.7233999252319335,0.3401836395263672,0
0.7238817214965820,0.3401836395263672,0
0.7237884521484375,0.3423019409179687,0
0.7228300094604492,0.3423019409179687,0
0.7248504638671874,0.3412101745605469,0
0.7249591827392577,0.3412101745605469,0
0.7262500762939453,0.3413927078247070,0
0.7269424438476563,0.3413927078247070,0
0.7247766494750977,0.3426424026489258,0
0.7271438598632812,0.3426424026489258,0
0.7260881423950195,0.3427705764770508,0
0.7264125823974609,0.3427705764770508,0
0.7267084121704102,0.3450267791748047,0
0.7255102157592773,0.3450267791748047,0
0.7279626846313476,0.3440305709838867,0
0.7278528213500977,0.3440305709838867,0
0.7294097900390625,0.3441947937011718,0
0.7299940109252929,0.3441947937011718,0
0.7278894424438477,0.3454565048217773,0
0.7301290512084960,0.3454565048217773,0
0.7293096542358398,0.3456367492675781,0
0.7308952331542968,0.3456367492675781,0
0.7299013137817383,0.3478551864624023,0
0.7287231445312500,0.3478551864624023,0
0.7311624526977539,0.3468309402465820,0
0.7310846328735351,0.3468309402465820,0
0.7325563430786133,0.3470529556274414,0
0.7330261230468750,0.3470529556274414,0
0.7310319900512695,0.3482563018798828,0
0.7332561492919921,0.3482563018798828,0
0.7323629379272460,0.3483409881591797,0
0.7325769424438476,0.3483409881591797,0
0.7328390121459961,0.3504650115966797,0
0.7315944671630860,0.3504650115966797,0
0.7339794158935546,0.3492593765258789,0
0.7338169097900390,0.3492593765258789,0
0.7352119445800781,0.3494338989257812,0
0.7355552673339844,0.3494338989257812,0
0.7334341049194336,0.3503803253173828,0
0.7355381011962890,0.3503803253173828,0
0.7346179962158202,0.3503339767456055,0
0.7346878051757812,0.3503339767456055,0
0.7349349975585937,0.3524070739746094,0
0.7336784362792969,0.3524070739746094,0
0.7359586715698242,0.3510452270507812,0
0.7357721328735352,0.3510452270507812,0
0.7370218276977539,0.3511013031005859,0
0.7373937606811524,0.3511013031005859,0
0.7352537155151367,0.3519830703735352,0
0.7372884750366211,0.3519830703735352,0
0.7363019943237304,0.3517690658569336,0
0.7363128662109375,0.3517690658569336,0
0.7365034103393554,0.3537179946899414,0
0.7351873397827148,0.3537179946899414,0
0.7373502731323242,0.3522651672363281,0
0.7371231079101562,0.3522651672363281,0
0.7383584976196289,0.3521627426147461,0
0.7386297225952149,0.3521627426147461,0
0.7364215850830078,0.3530319213867187,0
0.7383808135986328,0.3530319213867187,0
0.7373737335205078,0.3527544021606445,0
0.7372901916503906,0.3527544021606445,0
0.7375150680541992,0.3545997619628906,0
0.7361011505126953,0.3545997619628906,0
0.7384168624877929,0.3531200408935547,0
0.7377794265747070,0.3531200408935547,0
0.7392425537109375,0.3529684066772461,0
0.7396854400634766,0.3529684066772461,0
0.7372478485107422,0.3537242889404297,0
0.7392499923706054,0.3537242889404297,0
0.7379711151123046,0.3532047271728516,0
0.7376180648803711,0.3532047271728516,0
0.7375316619873047,0.3544630050659179,0
0.7355981826782226,0.3544630050659179,0
0.7371849060058594,0.3516139984130859,0
0.7359615325927734,0.3516139984130859,0
0.7357681274414062,0.3493921279907227,0
0.7347639083862304,0.3493921279907227,0
0.7303310394287109,0.3467382431030273,0
0.7296506881713867,0.3467382431030273,0
0.7258598327636718,0.3413280487060547,0
0.7217004776000976,0.3413280487060547,0
0.7186466217041015,0.3363784790039062,0
0.7127145767211914,0.3363784790039062,0
0.7116119384765625,0.3280122756958008,0
0.7077644348144531,0.3280122756958008,0
0.7058887481689453,0.3227359771728516,0
0.7038019180297851,0.3227359771728516,0
0.6993753433227539,0.3200500488281250,0
0.6995916366577148,0.3200500488281250,0
0.6975162506103515,0.3176610946655273,0
0.6959918975830078,0.3176610946655273,0
0.6959529876708984,0.3180049896240234,0
0.6936670303344726,0.3180049896240234,0
0.6958454132080077,0.3154626846313476,0
0.6954071044921875,0.3154626846313476,0
0.6960800170898437,0.3152257919311524,0
0.6967208862304687,0.3152257919311524,0
0.6943273544311523,0.3162094116210937,0
0.6964342117309570,0.3162094116210937,0
0.6957241058349609,0.3164880752563476,0
0.6957017898559570,0.3164880752563476,0
0.6966499328613281,0.3187459945678711,0
0.6955272674560546,0.3187459945678711,0
0.6982990264892578,0.3177280426025391,0
0.6987161636352539,0.3177280426025391,0
0.6999521255493164,0.3187425613403320,0
0.7014123916625976,0.3187425613403320,0
0.6995189666748046,0.3209232330322265,0
0.7024744033813476,0.3209232330322265,0
0.7025281906127929,0.3226329803466797,0
0.7033733367919922,0.3226329803466797,0
0.7052421569824219,0.3266630172729492,0
0.7051786422729492,0.3266630172729492,0
0.7091279983520508,0.3275024414062500,0
0.7106460571289063,0.3275024414062500,0
0.7127803802490235,0.3300836563110351,0
0.7150737762451171,0.3300836563110351,0
0.7138034820556640,0.3334247589111328,0
0.7171245574951172,0.3334247589111328,0
0.7171937942504882,0.3353530883789063,0
0.7178752899169921,0.3353530883789063,0
0.7192949295043946,0.3387331008911132,0
0.7185167312622071,0.3387331008911132,0
0.7216581344604492,0.3378931045532226,0
0.7220220565795898,0.3378931045532226,0
0.7230909347534179,0.3385791778564453,0
0.7241867065429687,0.3385791778564453,0
0.7215860366821288,0.3397275924682617,0
0.7235372543334960,0.3397275924682617,0
0.7226280212402344,0.3395994186401367,0
0.7220397949218750,0.3395994186401367,0
0.7226331710815429,0.3410499572753906,0
0.7208576202392578,0.3410499572753906,0
0.7231218338012695,0.3387079238891602,0
0.7226560592651367,0.3387079238891602,0
0.7231309890747070,0.3383256912231445,0
0.7234554290771484,0.3383256912231445,0
0.7207300186157226,0.3387176513671875,0
0.7224351882934570,0.3387176513671875,0
0.7213233947753906,0.3383308410644531,0
0.7207214355468750,0.3383308410644531,0
0.7213914871215820,0.3399702072143554,0
0.7197881698608398,0.3399702072143554,0
0.7222749710083007,0.3381511688232422,0
0.7223070144653320,0.3381511688232422,0
0.7230445861816406,0.3384149551391601,0
0.7238851547241211,0.3384149551391601,0
0.7215173721313476,0.3396331787109375,0
0.7236843109130859,0.3396331787109375,0
0.7230440139770508,0.3400194168090820,0
0.7229141235351563,0.3400194168090820,0
0.7239040374755860,0.3424678802490234,0
0.7227470397949218,0.3424678802490234,0
0.7255754470825195,0.3412902832031250,0
0.7258901596069336,0.3412902832031250,0
0.7269218444824218,0.3421354293823242,0
0.7280879974365234,0.3421354293823242,0
0.7259393692016601,0.3438114166259765,0
0.7284090042114257,0.3438114166259765,0
0.7278871536254883,0.3444425582885742,0
0.7279106140136719,0.3444425582885742,0
0.7289148330688476,0.3469911575317383,0
0.7278516769409179,0.3469911575317383,0
0.7307081222534180,0.3458559036254883,0
0.7310348510742187,0.3458559036254883,0
0.7319715499877929,0.3466260910034180,0
0.7330890655517578,0.3466260910034180,0
0.7308860778808594,0.3481567382812500,0
0.7331382751464843,0.3481567382812500,0
0.7325946807861328,0.3486093521118164,0
0.7323812484741211,0.3486093521118164,0
0.7333751678466797,0.3508655548095703,0
0.7321317672729492,0.3508655548095703,0
0.7349166870117188,0.3495082855224609,0
0.7349985122680663,0.3495082855224609,0
0.7358779907226562,0.3500329971313477,0
0.7368101119995117,0.3500329971313477,0
0.7345367431640625,0.3512649536132812,0
0.7365709304809570,0.3512649536132812,0
0.7359237670898438,0.3515464782714844,0
0.7355655670166016,0.3515464782714844,0
0.7363855361938476,0.3535091400146484,0
0.7350986480712890,0.3535091400146484,0
0.7376569747924805,0.3519687652587891,0
0.7377096176147461,0.3519687652587891,0
0.7382926940917969,0.3523017883300781,0
0.7392448425292969,0.3523017883300781,0
0.7368850708007812,0.3533678054809570,0
0.7388254165649414,0.3533678054809570,0
0.7381061553955078,0.3535028457641601,0
0.7376724243164062,0.3535028457641601,0
0.7384466171264649,0.3553407669067383,0
0.7371648788452149,0.3553407669067383,0
0.7396184921264648,0.3536458969116211,0
0.7396711349487305,0.3536458969116211,0
0.7401128768920898,0.3539113998413086,0
0.7409769058227539,0.3539113998413086,0
0.7384820938110351,0.3548160552978515,0
0.7403102874755859,0.3548160552978515,0
0.7394582748413085,0.3547353744506836,0
0.7387882232666015,0.3547353744506836,0
0.7393610000610351,0.3560056686401367,0
0.7375036239624023,0.3560056686401367,0
0.7394651412963867,0.3533048629760742,0
0.7385559082031250,0.3533048629760742,0
0.7356210708618164,0.3518091201782226,0
0.7322977066040038,0.3499843597412109,0
0.7319503784179687,0.3455417633056641,0
0.7277114868164062,0.3455417633056641,0
0.7246112823486328,0.3384063720703125,0
0.7208009719848633,0.3384063720703125,0
0.7107410430908203,0.3313419342041016,0
0.7111759185791016,0.3313419342041016,0
0.7111759185791016,0.3270835876464844,0
0.7042631149291992,0.3246002197265625,0
0.7008773803710937,0.3213186264038086,0
0.6974206924438476,0.3213186264038086,0
0.6980575561523438,0.3168542861938476,0
0.6958185195922851,0.3168542861938476,0
0.6957469940185547,0.3148538589477539,0
0.6941167831420898,0.3148538589477539,0
0.6927434921264648,0.3146678924560547,0
0.6936143875122071,0.3146678924560547,0
0.6933774948120117,0.3140178680419922,0
0.6933774948120117,0.3130302429199219,0
0.6933774948120117,0.3134119033813477,0
0.6917575836181641,0.3140367507934570,0
0.6934307098388671,0.3140367507934570,0
0.6927938461303711,0.3140790939331055,0
0.6923824310302734,0.3140790939331055,0
0.6932235717773437,0.3156188964843750,0
0.6921003341674804,0.3156188964843750,0
0.6943931579589844,0.3143142700195312,0
0.6946500778198242,0.3143142700195312,0
0.6950534820556641,0.3148378372192382,0
0.6961263656616211,0.3148378372192382,0
0.6942289352416992,0.3160245895385742,0
0.6962648391723633,0.3160245895385742,0
0.6958688735961914,0.3167472839355469,0
0.6958230972290039,0.3167472839355469,0
0.6970344543457031,0.3191619873046875,0
0.6965898513793946,0.3191619873046875,0
0.6994829177856445,0.3189365386962891,0
0.7005134582519531,0.3189365386962891,0
0.7016773223876953,0.3209381103515625,0
0.7035821914672852,0.3209381103515625,0
0.7025974273681640,0.3237207412719726,0
0.7055757522583007,0.3237207412719726,0
0.7059322357177734,0.3257617950439453,0
0.7067733764648437,0.3257617950439453,0
0.7083972930908203,0.3291727066040039,0
0.7081689834594727,0.3291727066040039,0
0.7113075256347656,0.3291217803955078,0
0.7121990203857421,0.3291217803955078,0
0.7131900787353516,0.3306455612182617,0
0.7146171569824219,0.3306455612182617,0
0.7128078460693359,0.3321487426757813,0
0.7148557662963867,0.3321487426757813,0
0.7142457962036133,0.3324016571044922,0
0.7139797210693359,0.3324016571044922,0
0.7143367767333985,0.3339952468872070,0
0.7129732131958008,0.3339952468872070,0
0.7150583267211914,0.3319398880004883,0
0.7146486282348633,0.3319398880004883,0
0.7149564743041992,0.3316846847534179,0
0.7152660369873046,0.3316846847534179,0
0.7127466201782227,0.3318546295166016,0
0.7142343521118164,0.3318546295166016,0
0.7130504608154297,0.3312629699707031,0
0.7125366210937499,0.3312629699707031,0
0.7127878189086914,0.3325922012329102,0
0.7114419937133789,0.3325922012329102,0
0.7135969161987304,0.3306175231933594,0
0.7133508682250976,0.3306175231933594,0
0.7139116287231445,0.3309230804443359,0
0.7145118713378906,0.3309230804443359,0
0.7124553680419922,0.3317224502563477,0
0.7143493652343750,0.3317224502563477,0
0.7137657165527344,0.3319850921630859,0
0.7136112213134765,0.3319850921630859,0
0.7141370773315430,0.3339900970458984,0
0.7132490158081054,0.3339900970458984,0
0.7157678604125977,0.3329818725585937,0
0.7160190582275391,0.3329818725585937,0
0.7169586181640625,0.3338596343994141,0
0.7179880142211914,0.3338596343994141,0
0.7163291931152344,0.3353719711303711,0
0.7186237335205078,0.3353719711303711,0
0.7183330535888671,0.3362674713134766,0
0.7186489105224609,0.3362674713134766,0
0.7194208145141602,0.3388904571533203,0
0.7188743591308594,0.3388904571533203,0
0.7216695785522461,0.3382312774658203,0
0.7221347808837890,0.3382312774658203,0
0.7233633041381836,0.3396354675292969,0
0.7246175765991211,0.3396354675292969,0
0.7230268478393554,0.3414939880371093,0
0.7255851745605468,0.3414939880371093,0
0.7252882003784179,0.3423460006713867,0
0.7255176544189453,0.3423460006713867,0
0.7262689590454101,0.3450479507446289,0
0.7257631301879882,0.3450479507446289,0
0.7284639358520507,0.3442657470703125,0
0.7288055419921875,0.3442657470703125,0
0.7299030303955077,0.3452379226684570,0
0.7309049606323242,0.3452379226684570,0
0.7291740417480469,0.3467451095581054,0
0.7314073562622070,0.3467451095581054,0
0.7309461593627929,0.3474037170410156,0
0.7322467803955078,0.3474037170410156,0
0.7315023422241210,0.3496461868286133,0
0.7307435989379882,0.3496461868286133,0
0.7333024978637696,0.3485761642456054,0
0.7332647323608398,0.3485761642456054,0
0.7342626571655273,0.3492839813232422,0
0.7351272583007812,0.3492839813232422,0
0.7331897735595703,0.3503425598144531,0
0.7352251052856446,0.3503425598144531,0
0.7346872329711914,0.3506435394287109,0
0.7345630645751953,0.3506435394287109,0
0.7349012374877929,0.3526920318603515,0
0.7340417861938476,0.3526920318603515,0
0.7364896774291992,0.3513387680053711,0
0.7361841201782227,0.3513387680053711,0
0.7371728897094726,0.3518560409545898,0
0.7378051757812499,0.3518560409545898,0
0.7358219146728515,0.3526451110839844,0
0.7377107620239257,0.3526451110839844,0
0.7370109558105469,0.3526720046997070,0
0.7367076873779297,0.3526720046997070,0
0.7368558883666992,0.3544469833374023,0
0.7357429504394531,0.3544469833374023,0
0.7362390518188476,0.3527235031127929,0
0.7358253479003906,0.3531589508056641,0
0.7338644027709961,0.3493612289428711,0
0.7321643829345703,0.3487518310546875,0
0.7293823242187499,0.3436620712280273,0
0.7223585128784179,0.3394226074218750,0
0.7190448760986328,0.3306638717651367,0
0.7103919982910156,0.3268260955810547,0
0.7067687988281249,0.3215824127197265,0
0.7003395080566406,0.3215824127197265,0
0.6975460052490234,0.3175655364990234,0
0.6965492248535156,0.3159313201904297,0
0.6923023223876953,0.3150964736938476,0
0.6912403106689453,0.3130067825317382,0
0.6911344528198242,0.3126714706420898,0
0.6884668350219726,0.3132305145263672,0
0.6890710830688477,0.3117656707763672,0
0.6893388748168945,0.3123476028442383,0
0.6887884140014648,0.3115602493286133,0
0.6877716064453124,0.3124958038330078,0
0.6898246765136719,0.3108152389526367,0
0.6900936126708984,0.3110229492187500,0
0.6889984130859375,0.3126955032348633,0
0.6902618408203125,0.3112964630126953,0
0.6897560119628906,0.3126869201660156,0
0.6913919448852539,0.3115585327148437,0
0.6915332794189453,0.3125026702880859,0
0.6914222717285156,0.3122806549072266,0
0.6924671173095703,0.3127367019653320,0
0.6923543930053710,0.3158557891845703,0
0.6947988510131836,0.3148578643798828,0
0.6954305648803710,0.3162248611450195,0
0.6965143203735351,0.3167695999145508,0
0.6971254348754883,0.3190395355224609,0
0.6997472763061523,0.3217712402343750,0
0.7005002975463867,0.3204042434692383,0
0.7011497497558593,0.3233619689941406,0
0.7017442703247070,0.3228069305419922,0
0.7038282394409180,0.3237201690673828,0
0.7049886703491210,0.3239719390869141,0
0.7044216156005859,0.3249881744384766,0
0.7060638427734375,0.3239850997924805,0
0.7064718246459961,0.3250534057617188,0
0.7044988632202148,0.3266138076782226,0
0.7051448822021484,0.3254316329956055,0
0.7059745788574219,0.3253921508789062,0
0.7056724548339843,0.3261005401611328,0
0.7049045562744141,0.3268810272216797,0
0.7065736770629882,0.3255208969116211,0
0.7073444366455078,0.3257761001586914,0
0.7080430984497070,0.3264839172363281,0
0.7077335357666016,0.3262533187866211,0
0.7084682464599609,0.3266939163208007,0
0.7076128005981445,0.3286502838134766,0
0.7094638824462890,0.3277570724487305,0
0.7091915130615234,0.3282600402832031,0
0.7095050811767578,0.3305900573730469,0
0.7098644256591796,0.3308732986450195,0
0.7116777420043945,0.3318798065185547,0
0.7119586944580077,0.3307176589965820,0
0.7130149841308594,0.3332668304443359,0
0.7130149841308594,0.3326242446899414,0
0.7149387359619140,0.3336124420166016,0
0.7163589477539062,0.3340999603271484,0
0.7164276123046874,0.3356603622436523,0
0.7184062957763672,0.3356603622436523,0
0.7199592590332031,0.3368705749511718,0
0.7212558746337890,0.3372568130493164,0
0.7223573684692383,0.3389430999755859,0
0.7221004486083984,0.3390970230102539,0
0.7234731674194336,0.3403661727905273,0
0.7229187011718750,0.3403661727905273,0
0.7252275466918945,0.3418132781982422,0
0.7252275466918945,0.3418790817260742,0
0.7275037765502930,0.3429691314697266,0
0.7257991790771484,0.3450181961059570,0
0.7278963088989258,0.3442079544067383,0
0.7277744293212890,0.3442079544067383,0
0.7281120300292968,0.3451068878173828,0
0.7281120300292968,0.3470466613769531,0
0.7299945831298827,0.3460544586181640,0
0.7297204971313477,0.3466587066650391,0
0.7299242019653320,0.3479421615600586,0
0.7319795608520507,0.3477624893188476,0
0.7316843032836914,0.3476274490356445,0
0.7324659347534179,0.3482992172241211,0
0.7314496994018554,0.3492788314819336,0
0.7330947875976562,0.3482368469238281,0
0.7327886581420898,0.3489406585693359,0
0.7343667984008789,0.3494293212890625,0
0.7327068328857421,0.3512386322021484,0
0.7342191696166992,0.3499706268310547,0
0.7337848663330078,0.3514755249023437,0
0.7334735870361327,0.3509622573852539,0
0.7326061248779296,0.3517427444458008,0
0.7331611633300781,0.3498504638671875,0
0.7333688735961914,0.3495409011840820,0
0.7310268402099609,0.3491701126098632,0
0.7294435501098633,0.3469448089599609,0
0.7249334335327148,0.3419208526611328,0
0.7206556320190429,0.3409818649291992,0
0.7103702545166015,0.3347888946533203,0
0.7114700317382813,0.3295337677001953,0
0.7035438537597656,0.3231084823608398,0
0.6966030120849609,0.3194589614868164,0
0.6966030120849609,0.3187437057495117,0
0.6934318542480469,0.3139314651489258,0
0.6906406402587890,0.3109399795532227,0
0.6895854949951171,0.3117073059082031,0
0.6879621505737304,0.3104124069213867,0
0.6877286911010742,0.3095289230346679,0
0.6869464874267578,0.3088514328002930,0
0.6853443145751953,0.3094591140747070,0
0.6863296508789062,0.3077516555786133,0
0.6856641769409180,0.3083267211914062,0
0.6866678237915039,0.3084989547729492,0
0.6852436065673828,0.3099517822265625,0
0.6865356445312499,0.3086666107177734,0
0.6862083435058594,0.3100450515747070,0
0.6860321044921874,0.3100027084350586,0
0.6856069564819336,0.3106475830078125,0
0.6873956680297851,0.3095031738281250,0
0.6873973846435547,0.3096101760864258,0
0.6898962020874023,0.3122125625610351,0
0.6940727233886719,0.3153133392333984,0
0.6978778839111328,0.3174345016479492,0
0.6963369369506835,0.3197542190551758,0
0.6995527267456054,0.3200162887573242,0
0.7000173568725586,0.3221042633056641,0
0.7010307312011719,0.3229677200317383,0
0.7010147094726562,0.3236108779907226,0
0.7030660629272460,0.3229305267333984,0
0.7031152725219726,0.3233774185180664,0
0.7029808044433593,0.3250934600830078,0
0.7030517578125000,0.3246809005737304,0
0.7035478591918946,0.3246156692504883,0
0.7031690597534179,0.3235181808471679,0
0.7015897750854492,0.3245561599731445,0
0.7023942947387695,0.3231771469116211,0
0.7024801254272460,0.3225030899047852,0
0.7028795242309570,0.3215938568115234,0
0.7011800765991211,0.3221677780151367,0
0.7021699905395508,0.3221677780151367,0
0.7021179199218750,0.3217689514160156,0
0.7021179199218750,0.3216321945190430,0
0.7024085998535156,0.3220270156860351,0
0.7021236419677734,0.3217191696166992,0
0.7025505065917969,0.3221918106079101,0
0.7014850616455078,0.3231325149536133,0
0.7034826278686523,0.3226982116699219,0
0.7028881072998047,0.3230873107910156,0
0.7037733078002929,0.3233453750610352,0
0.7033338546752930,0.3243095397949219,0
0.7047449111938476,0.3237602233886719,0
0.7058258056640625,0.3246665954589844,0
0.7056215286254882,0.3263597488403320,0
0.7073913574218750,0.3263597488403320,0
0.7077667236328125,0.3272111892700195,0
0.7078519821166992,0.3295721054077148,0
0.7084831237792969,0.3295721054077148,0
0.7101007461547851,0.3289804458618164,0
0.7101058959960938,0.3289804458618164,0
0.7113080978393554,0.3301797866821289,0
0.7121789932250976,0.3301797866821289,0
0.7112354278564453,0.3313076019287109,0
0.7133691787719726,0.3313076019287109,0
0.7130104064941406,0.3321138381958008,0
0.7133972167968750,0.3321138381958008,0
0.7133834838867187,0.3344844818115234,0
0.7132169723510742,0.3344844818115234,0
0.7155704498291016,0.3336565017700195,0
0.7153627395629882,0.3336565017700195,0
0.7164699554443359,0.3346355438232422,0
0.7171520233154297,0.3346355438232422,0
0.7160802841186523,0.3355173110961914,0
0.7179719924926757,0.3355173110961914,0
0.7174043655395508,0.3359298706054688,0
0.7175588607788086,0.3359298706054688,0
0.7174833297729492,0.3379697799682617,0
0.7171131134033203,0.3379697799682617,0
0.7193458557128906,0.3369672775268555,0
0.7191123962402344,0.3369672775268555,0
0.7200719833374023,0.3377477645874024,0
0.7206739425659180,0.3377477645874024,0
0.7194866180419922,0.3385208129882812,0
0.7214097976684570,0.3385208129882812,0
0.7209114074707031,0.3391044616699219,0
0.7210859298706055,0.3391044616699219,0
0.7210538864135742,0.3411678314208984,0
0.7207317352294922,0.3411678314208984,0
0.7229753494262695,0.3401945114135742,0
0.7227750778198242,0.3401945114135742,0
0.7237758636474609,0.3411014556884766,0
0.7244716644287109,0.3411014556884766,0
0.7232860565185547,0.3418704986572266,0
0.7251583099365234,0.3418704986572266,0
0.7246828079223633,0.3424169540405274,0
0.7247697830200195,0.3424169540405274,0
0.7246833801269531,0.3444574356079101,0
0.7243474960327149,0.3444574356079101,0
0.7265613555908202,0.3432672500610351,0
0.7261379241943359,0.3432672500610351,0
0.7269962310791015,0.3438577651977539,0
0.7273475646972656,0.3438577651977539,0
0.7258380889892578,0.3439270019531250,0
0.7270368576049805,0.3439270019531250,0
0.7256097793579102,0.3428569793701172,0
0.7242027282714844,0.3428569793701172,0
0.7223447799682617,0.3414636611938476,0
0.7191289901733399,0.3414636611938476,0
0.7183198928833008,0.3345771789550781,0
0.7135105133056641,0.3345771789550781,0
0.7102386474609375,0.3276111602783203,0
0.7057325363159179,0.3276111602783203,0
0.7005603790283202,0.3206697463989258,0
0.6979671478271484,0.3206697463989258,0
0.6945413589477539,0.3153408050537109,0
0.6913787841796875,0.3153408050537109,0
0.6890739440917969,0.3130468368530273,0
0.6863874435424805,0.3130468368530273,0
0.6869029998779297,0.3087421417236328,0
0.6848293304443359,0.3087421417236328,0
0.6845323562622070,0.3070964813232422,0
0.6837833404541015,0.3070964813232422,0
0.6817245483398438,0.3059480667114258,0
0.6824249267578125,0.3059480667114258,0
0.6814018249511719,0.3051052093505859,0
0.6806367874145508,0.3051052093505859,0
0.6801612854003906,0.3060207366943359,0
0.6792200088500976,0.3060207366943359,0
0.6811031341552735,0.3041599273681641,0
0.6804513931274414,0.3041599273681641,0
0.6810756683349609,0.3043928146362305,0
0.6813234329223633,0.3043928146362305,0
0.6800971984863281,0.3045845031738281,0
0.6814641952514648,0.3045845031738281,0
0.6808753967285156,0.3047235488891601,0
0.6806339263916016,0.3047235488891601,0
0.6805658340454102,0.3062490463256836,0
0.6799312591552734,0.3062490463256836,0
0.6820724487304687,0.3048557281494140,0
0.6816272735595703,0.3048557281494140,0
0.6823751449584960,0.3055366516113281,0
0.6830039978027344,0.3055366516113281,0
0.6818572998046875,0.3061895370483398,0
0.6836809158325196,0.3061895370483398,0
0.6834131240844726,0.3068939208984375,0
0.6836357116699219,0.3068939208984375,0
0.6839727401733399,0.3092885971069336,0
0.6839899063110352,0.3092885971069336,0
0.6866168975830078,0.3089590072631836,0
0.6868904113769531,0.3089590072631836,0
0.6880565643310547,0.3104799270629883,0
0.6891677856445312,0.3104799270629883,0
0.6883300781250000,0.3117639541625977,0
0.6910881042480469,0.3127012252807617,0
0.6903894424438476,0.3147022247314453,0
0.6899637222290039,0.3147022247314453,0
0.6921300888061523,0.3132402420043945,0
0.6916460037231446,0.3132402420043945,0
0.6921764373779297,0.3135789871215820,0
0.6924831390380859,0.3135789871215820,0
0.6908992767333985,0.3135274887084961,0
0.6921472549438477,0.3135274887084961,0
0.6913827896118164,0.3132785797119140,0
0.6907133102416992,0.3132785797119140,0
0.6903127670288086,0.3143325805664062,0
0.6893777847290039,0.3143325805664062,0
0.6912540435791016,0.3123441696166992,0
0.6905410766601562,0.3123441696166992,0
0.6908781051635742,0.3123956680297851,0
0.6911447525024413,0.3123956680297851,0
0.6895677566528320,0.3124322891235352,0
0.6909490585327148,0.3124322891235352,0
0.6902034759521484,0.3124494552612305,0
0.6899580001831055,0.3124494552612305,0
0.6897153854370117,0.3139326095581055,0
0.6890928268432617,0.3139326095581055,0
0.6912111282348633,0.3123790740966797,0
0.6908363342285156,0.3123790740966797,0
0.6914400100708008,0.3129770278930664,0
0.6920534133911133,0.3129770278930664,0
0.6907648086547852,0.3134548187255859,0
0.6923618316650391,0.3134548187255859,0
0.6918416976928711,0.3139715194702148,0
0.6917289733886719,0.3139715194702148,0
0.6918519973754883,0.3157167434692383,0
0.6914560317993164,0.3157167434692383,0
0.6937042236328125,0.3146060943603515,0
0.6935731887817382,0.3146060943603515,0
0.6943353652954102,0.3156806945800781,0
0.6952451705932617,0.3156806945800781,0
0.6940555572509766,0.3165246963500977,0
0.6960216522216797,0.3165246963500977,0
0.6957406997680664,0.3174734115600586,0
0.6958980560302734,0.3174734115600586,0
0.6962219238281250,0.3196792602539062,0
0.6961297988891602,0.3196792602539062,0
0.6986618041992188,0.3188844680786133,0
0.6987075805664062,0.3188844680786133,0
0.6996671676635742,0.3203269958496094,0
0.7007686614990234,0.3203269958496094,0
0.6998725891113281,0.3215869903564453,0
0.7019067764282226,0.3215869903564453,0
0.7017808914184570,0.3227268218994140,0
0.7020275115966796,0.3227268218994140,0
0.7024131774902344,0.3251415252685547,0
0.7023147583007813,0.3251415252685547,0
0.7049554824829102,0.3244411468505859,0
0.7050985336303711,0.3244411468505859,0
0.7059894561767578,0.3258733749389648,0
0.7071321487426757,0.3258733749389648,0
0.7061267852783203,0.3270578384399414,0
0.7082096099853515,0.3270578384399414,0
0.7080814361572265,0.3281524658203125,0
0.7082330703735351,0.3281524658203125,0
0.7086593627929687,0.3305940628051758,0
0.7085397720336913,0.3305940628051758,0
0.7111770629882812,0.3298101425170898,0
0.7111816406250000,0.3298101425170898,0
0.7120622634887696,0.3311588287353516,0
0.7131008148193360,0.3311588287353516,0
0.7119684219360352,0.3322002410888672,0
0.7139951705932617,0.3322002410888672,0
0.7137931823730469,0.3331855773925781,0
0.7138492584228515,0.3331855773925781,0
0.7141874313354492,0.3353794097900391,0
0.7139322280883789,0.3353794097900391,0
0.7165100097656250,0.3343700408935547,0
0.7165122985839844,0.3343700408935547,0
0.7172086715698242,0.3356838226318359,0
0.7182518005371094,0.3356838226318359,0
0.7171171188354492,0.3366336822509766,0
0.7190511703491210,0.3366336822509766,0
0.7188188552856445,0.3376007080078125,0
0.7188222885131835,0.3376007080078125,0
0.7191427230834960,0.3397705078125000,0
0.7188337326049804,0.3397705078125000,0
0.7213737487792968,0.3387445449829101,0
0.7213314056396484,0.3387445449829101,0
0.7219957351684571,0.3398872375488281,0
0.7229164123535156,0.3398872375488281,0
0.7216924667358399,0.3406934738159180,0
0.7235429763793945,0.3406934738159180,0
0.7231727600097656,0.3414567947387695,0
0.7229770660400391,0.3414567947387695,0
0.7233306884765625,0.3432718276977539,0
0.7227762222290038,0.3432718276977539,0
0.7251159667968750,0.3419517517089843,0
0.7248996734619141,0.3419517517089843,0
0.7252584457397461,0.3427574157714844,0
0.7258684158325195,0.3427574157714844,0
0.7242794036865234,0.3427602767944336,0
0.7254095077514648,0.3427602767944336,0
0.7243886947631836,0.3420713424682617,0
0.7228969573974610,0.3420713424682617,0
0.7216449737548828,0.3412181854248047,0
0.7186254501342774,0.3412181854248047,0
0.7183742523193359,0.3346864700317383,0
0.7139322280883789,0.3346864700317383,0
0.7101482391357422,0.3277839660644531,0
0.7054132461547852,0.3277839660644531,0
0.6996362686157226,0.3198635101318359,0
0.6968015670776367,0.3198635101318359,0
0.6924339294433594,0.3136848449707031,0
0.6885332107543946,0.3136848449707031,0
0.6862798690795898,0.3107254028320313,0
0.6831418991088867,0.3107254028320313,0
0.6837135314941406,0.3058645248413086,0
0.6815763473510742,0.3058645248413086,0
0.6806373596191406,0.3041587829589844,0
0.6800760269165039,0.3041587829589844,0
0.6777969360351562,0.3028295516967773,0
0.6784372329711914,0.3028295516967773,0
0.6773649215698242,0.3021800994873047,0
0.6763652801513672,0.3021800994873047,0
0.6762125015258789,0.3028936386108398,0
0.6751871109008789,0.3028936386108398,0
0.6771949768066406,0.3007381439208984,0
0.6766365051269531,0.3007381439208984,0
0.6767108917236327,0.3011123657226563,0
0.6773202896118163,0.3011123657226563,0
0.6757547378540039,0.3012016296386719,0
0.6771526336669922,0.3012016296386719,0
0.6766799926757813,0.3015066146850586,0
0.6761873245239257,0.3015066146850586,0
0.6762628555297852,0.3028707504272461,0
0.6756219863891602,0.3028707504272461,0
0.6778667449951171,0.3012708663940429,0
0.6775812149047852,0.3012708663940429,0
0.6778175354003906,0.3019678115844727,0
0.6786947250366211,0.3019678115844727,0
0.6774684906005859,0.3025537490844726,0
0.6791044235229492,0.3025537490844726,0
0.6789344787597656,0.3034383773803711,0
0.6789390563964843,0.3034383773803711,0
0.6795690536499023,0.3057512283325195,0
0.6795707702636719,0.3057512283325195,0
0.6824060440063476,0.3052677154541015,0
0.6828781127929687,0.3052677154541015,0
0.6837203979492187,0.3072206497192383,0
0.6838554382324219,0.3085447311401367,0
0.6838554382324219,0.3094047546386718,0
0.6872680664062499,0.3091575622558594,0
0.6881687164306640,0.3108312606811524,0
0.6896724700927734,0.3108312606811524,0
0.6886138916015625,0.3120517730712891,0
0.6904935836791992,0.3120517730712891,0
0.6901697158813477,0.3129386901855469,0
0.6898584365844727,0.3129386901855469,0
0.6901674270629883,0.3144332885742188,0
0.6897148132324219,0.3144332885742188,0
0.6917627334594726,0.3127653121948242,0
0.6909736633300781,0.3127653121948242,0
0.6910549163818359,0.3129409790039062,0
0.6916242599487304,0.3129409790039062,0
0.6898550033569336,0.3126817703247070,0
0.6909444808959960,0.3126817703247070,0
0.6900398254394531,0.3125867843627930,0
0.6892501831054687,0.3125867843627930,0
0.6891477584838867,0.3134794235229492,0
0.6885080337524414,0.3134794235229492,0
0.6903797149658203,0.3115928649902344,0
0.6896278381347656,0.3115928649902344,0
0.6898641586303711,0.3118972778320312,0
0.6906383514404296,0.3118972778320312,0
0.6891180038452148,0.3121341705322265,0
0.6905725479125976,0.3121341705322265,0
0.6901147842407226,0.3127172470092773,0
0.6897445678710937,0.3127172470092773,0
0.6899614334106445,0.3142238616943359,0
0.6895797729492187,0.3142238616943359,0
0.6918903350830078,0.3129632949829101,0
0.6915733337402343,0.3129632949829101,0
0.6919761657714844,0.3139200210571289,0
0.6931955337524414,0.3139200210571289,0
0.6918966293334960,0.3147783279418945,0
0.6937471389770508,0.3147783279418945,0
0.6935245513916015,0.3158815383911133,0
0.6933940887451172,0.3158815383911133,0
0.6940378189086914,0.3180118560791015,0
0.6941459655761718,0.3180118560791015,0
0.6967031478881835,0.3174190521240234,0
0.6967266082763671,0.3174190521240234,0
0.6974990844726562,0.3188735961914063,0
0.6989988327026367,0.3188735961914063,0
0.6981479644775390,0.3202932357788086,0
0.7002405166625977,0.3202932357788086,0
0.7002433776855469,0.3218530654907226,0
0.7004287719726562,0.3218530654907226,0
0.7011766433715820,0.3242980957031250,0
0.7014472961425781,0.3242980957031250,0
0.7041149139404297,0.3239152908325195,0
0.7042505264282226,0.3239152908325195,0
0.7051002502441406,0.3255191802978515,0
0.7066257476806640,0.3255191802978515,0
0.7057388305664062,0.3268936157226562,0
0.7077884674072266,0.3268936157226562,0
0.7077489852905273,0.3283252716064453,0
0.7078874588012695,0.3283252716064453,0
0.7084413528442383,0.3306535720825195,0
0.7086587905883789,0.3306535720825195,0
0.7112806320190429,0.3299818038940430,0
0.7112274169921875,0.3299818038940430,0
0.7118425369262695,0.3314043045043945,0
0.7132827758789062,0.3314043045043945,0
0.7121715545654297,0.3324239730834961,0
0.7140169143676758,0.3324239730834961,0
0.7137920379638671,0.3334762573242188,0
0.7136226654052734,0.3334762573242188,0
0.7140598297119141,0.3354057312011718,0
0.7140214920043945,0.3354057312011718,0
0.7164115905761719,0.3344146728515625,0
0.7161603927612304,0.3344146728515625,0
0.7165895462036133,0.3354978561401367,0
0.7177419662475586,0.3354978561401367,0
0.7165546417236328,0.3361679077148437,0
0.7182872772216796,0.3361679077148437,0
0.7179159164428711,0.3371280670166015,0
0.7175422668457031,0.3371280670166015,0
0.7179153442382812,0.3389167785644531,0
0.7177459716796875,0.3389167785644531,0
0.7200565338134766,0.3376796722412109,0
0.7196376800537109,0.3376796722412109,0
0.7200971603393554,0.3385734558105469,0
0.7211929321289062,0.3385734558105469,0
0.7199380874633788,0.3391782760620117,0
0.7214899063110352,0.3391782760620117,0
0.7211122512817383,0.3399999618530273,0
0.7207408905029297,0.3399999618530273,0
0.7210865020751953,0.3416227340698242,0
0.7207952499389648,0.3416227340698242,0
0.7231693267822266,0.3403558731079102,0
0.7226972579956055,0.3403558731079102,0
0.7230920791625977,0.3413125991821289,0
0.7241827011108398,0.3413125991821289,0
0.7229227066040039,0.3419225692749023,0
0.7245363235473633,0.3419225692749023,0
0.7241226196289062,0.3426950454711914,0
0.7236648559570312,0.3426950454711914,0
0.7239990234375000,0.3442880630493164,0
0.7236648559570312,0.3442880630493164,0
0.7259983062744141,0.3429857254028320,0
0.7255239486694336,0.3429857254028320,0
0.7258220672607422,0.3436986923217774,0
0.7268365859985352,0.3436986923217774,0
0.7254364013671875,0.3441398620605469,0
0.7268955230712890,0.3441398620605469,0
0.7264234542846679,0.3447320938110351,0
0.7257917404174804,0.3447320938110351,0
0.7259771347045898,0.3459280014038086,0
0.7252876281738281,0.3459280014038086,0
0.7271604537963867,0.3437141418457031,0
0.7258100509643555,0.3437141418457031,0
0.7250982284545898,0.3426097869873047,0
0.7243944168090820,0.3426097869873047,0
0.7212587356567383,0.3395038604736328,0
0.7194940567016601,0.3395038604736328,0
0.7156728744506836,0.3336353302001953,0
0.7100446701049804,0.3336353302001953,0
0.7053497314453124,0.3258808135986328,0
0.6990760803222656,0.3258808135986328,0
0.6966699600219727,0.3158626556396484,0
0.6913713455200196,0.3158626556396484,0
0.6882711410522461,0.3103094100952148,0
0.6859388351440430,0.3103094100952148,0
0.6823253631591797,0.3063594818115234,0
0.6813285827636718,0.3063594818115234,0
0.6793018341064453,0.3039178848266602,0
0.6770885467529296,0.3039178848266602,0
0.6762245178222656,0.3030178070068359,0
0.6747413635253906,0.3030178070068359,0
0.6760843276977538,0.3001384735107422,0
0.6747642517089844,0.3001384735107422,0
0.6744026184082031,0.2997665405273438,0
0.6749376296997071,0.2997665405273438,0
0.6732267379760742,0.2992927551269531,0
0.6742675781249999,0.2992927551269531,0
0.6735569000244140,0.2995227813720703,0
0.6727798461914062,0.2995227813720703,0
0.6729063034057617,0.3004205703735351,0
0.6723798751831055,0.3004205703735351,0
0.6744112014770508,0.2988395690917969,0
0.6737314224243164,0.2988395690917969,0
0.6738733291625977,0.2992990493774414,0
0.6747413635253906,0.2992990493774414,0
0.6734630584716796,0.2994117736816406,0
0.6747568130493163,0.2994117736816406,0
0.6742887496948242,0.3000051498413086,0
0.6737560272216797,0.3000051498413086,0
0.6740449905395508,0.3013618469238281,0
0.6738676071166992,0.3013618469238281,0
0.6762113571166992,0.3002471923828125,0
0.6759847640991211,0.3002471923828125,0
0.6763526916503906,0.3014310836791992,0
0.6778163909912109,0.3014310836791992,0
0.6769254684448242,0.3025966644287109,0
0.6790077209472656,0.3025966644287109,0
0.6791828155517577,0.3043184280395508,0
0.6793539047241210,0.3043184280395508,0
0.6803197860717773,0.3068401336669922,0
0.6807466506958008,0.3068401336669922,0
0.6835361480712890,0.3066484451293945,0
0.6837656021118164,0.3066484451293945,0
0.6845397949218750,0.3083827972412109,0
0.6861803054809570,0.3083827972412109,0
0.6852664947509766,0.3094762802124023,0
0.6870563507080077,0.3094762802124023,0
0.6868743896484375,0.3105772018432617,0
0.6864881515502930,0.3105772018432617,0
0.6869127273559570,0.3119756698608399,0
0.6864732742309571,0.3119756698608399,0
0.6885755538940429,0.3103889465332031,0
0.6877893447875977,0.3103889465332031,0
0.6876668930053711,0.3105857849121094,0
0.6882762908935547,0.3105857849121094,0
0.6866815567016601,0.3102058410644531,0
0.6876388549804687,0.3102058410644531,0
0.6866952896118164,0.3101325988769531,0
0.6857128143310547,0.3101325988769531,0
0.6856916427612304,0.3108530044555664,0
0.6849878311157226,0.3108530044555664,0
0.6869144439697266,0.3089921951293945,0
0.6861522674560546,0.3089921951293945,0
0.6861745834350585,0.3093852996826172,0
0.6855325698852539,0.3107654571533203,0
0.6872343063354492,0.3086940765380859,0
0.6869487762451172,0.3096113204956055,0
0.6878877639770508,0.3101154327392578,0
